        Time   Palpation Force
      0.0000         1.00
      0.0010         1.00
      0.0020         1.36
      0.0030         1.82
      0.0040         2.29
      0.0050         2.73
      0.0060         3.16
      0.0070         3.66
      0.0080         4.09
      0.0090         4.54
      0.0100         4.99
      0.0110         5.35
      0.0120         5.83
      0.0130         6.26
      0.0140         6.72
      0.0150         7.14
      0.0160         7.63
      0.0170         8.02
      0.0180         8.47
      0.0190         8.91
      0.0200         8.89
      0.0210         8.91
      0.0220         8.84
      0.0230         8.76
      0.0240         8.72
      0.0250         8.72
      0.0260         8.69
      0.0270         8.64
      0.0280         8.58
      0.0290         8.50
      0.0300         8.42
      0.0310         8.46
      0.0320         8.34
      0.0330         8.30
      0.0340         8.26
      0.0350         8.29
      0.0360         8.25
      0.0370         8.36
      0.0380         8.40
      0.0390         8.41
      0.0400         8.45
      0.0410         8.48
      0.0420         8.55
      0.0430         8.56
      0.0440         8.63
      0.0450         8.59
      0.0460         8.55
      0.0470         8.56
      0.0480         8.60
      0.0490         8.63
      0.0500         8.68
      0.0510         8.72
      0.0520         8.83
      0.0530         8.88
      0.0540         8.87
      0.0550         8.80
      0.0560         8.75
      0.0570         8.67
      0.0580         8.56
      0.0590         8.55
      0.0600         8.52
      0.0610         8.48
      0.0620         8.42
      0.0630         8.45
      0.0640         8.42
      0.0650         8.42
      0.0660         8.45
      0.0670         8.41
      0.0680         8.47
      0.0690         8.55
      0.0700         8.59
      0.0710         8.65
      0.0720         8.61
      0.0730         8.64
      0.0740         8.75
      0.0750         8.88
      0.0760         8.99
      0.0770         8.96
      0.0780         9.05
      0.0790         9.04
      0.0800         9.00
      0.0810         8.99
      0.0820         8.95
      0.0830         8.91
      0.0840         8.84
      0.0850         8.89
      0.0860         8.92
      0.0870         8.92
      0.0880         8.89
      0.0890         8.87
      0.0900         8.81
      0.0910         8.71
      0.0920         8.66
      0.0930         8.61
      0.0940         8.54
      0.0950         8.49
      0.0960         8.40
      0.0970         8.48
      0.0980         8.40
      0.0990         8.45
      0.1000         8.49
      0.1010         8.52
      0.1020         8.59
      0.1030         8.68
      0.1040         8.76
      0.1050         8.79
      0.1060         8.81
      0.1070         8.87
      0.1080         8.91
      0.1090         8.88
      0.1100         8.96
      0.1110         8.97
      0.1120         8.99
      0.1130         8.97
      0.1140         8.95
      0.1150         8.93
      0.1160         8.95
      0.1170         8.88
      0.1180         8.89
      0.1190         8.81
      0.1200         8.83
      0.1210         8.85
      0.1220         8.80
      0.1230         8.79
      0.1240         8.75
      0.1250         8.71
      0.1260         8.69
      0.1270         8.61
      0.1280         8.59
      0.1290         8.60
      0.1300         8.53
      0.1310         8.59
      0.1320         8.59
      0.1330         8.64
      0.1340         8.71
      0.1350         8.69
      0.1360         8.67
      0.1370         8.71
      0.1380         8.67
      0.1390         8.72
      0.1400         8.71
      0.1410         8.64
      0.1420         8.63
      0.1430         8.62
      0.1440         8.57
      0.1450         8.54
      0.1460         8.53
      0.1470         8.53
      0.1480         8.53
      0.1490         8.54
      0.1500         8.52
      0.1510         8.45
      0.1520         8.48
      0.1530         8.44
      0.1540         8.42
      0.1550         8.40
      0.1560         8.43
      0.1570         8.43
      0.1580         8.51
      0.1590         8.55
      0.1600         8.54
      0.1610         8.64
      0.1620         8.72
      0.1630         8.67
      0.1640         8.71
      0.1650         8.77
      0.1660         8.81
      0.1670         8.88
      0.1680         8.88
      0.1690         8.85
      0.1700         8.87
      0.1710         8.89
      0.1720         8.85
      0.1730         8.92
      0.1740         8.79
      0.1750         8.79
      0.1760         8.81
      0.1770         8.79
      0.1780         8.73
      0.1790         8.68
      0.1800         8.63
      0.1810         8.63
      0.1820         8.60
      0.1830         8.61
      0.1840         8.57
      0.1850         8.57
      0.1860         8.51
      0.1870         8.53
      0.1880         8.52
      0.1890         8.57
      0.1900         8.60
      0.1910         8.64
      0.1920         8.69
      0.1930         8.52
      0.1940         8.59
      0.1950         8.64
      0.1960         8.64
      0.1970         8.71
      0.1980         8.75
      0.1990         8.73
      0.2000         8.71
      0.2010         8.59
      0.2020         8.57
      0.2030         8.59
      0.2040         8.61
      0.2050         8.55
      0.2060         8.56
      0.2070         8.60
      0.2080         8.57
      0.2090         8.57
      0.2100         8.63
      0.2110         8.61
      0.2120         8.63
      0.2130         8.73
      0.2140         8.79
      0.2150         8.76
      0.2160         8.75
      0.2170         8.72
      0.2180         8.81
      0.2190         8.82
      0.2200         8.90
      0.2210         8.95
      0.2220         8.98
      0.2230         9.04
      0.2240         9.03
      0.2250         9.12
      0.2260         9.15
      0.2270         9.04
      0.2280         9.06
      0.2290         9.07
      0.2300         8.99
      0.2310         8.96
      0.2320         8.87
      0.2330         8.82
      0.2340         8.83
      0.2350         8.78
      0.2360         8.72
      0.2370         8.75
      0.2380         8.70
      0.2390         8.76
      0.2400         8.75
      0.2410         8.76
      0.2420         8.71
      0.2430         8.70
      0.2440         8.74
      0.2450         8.68
      0.2460         8.68
      0.2470         8.71
      0.2480         8.79
      0.2490         8.80
      0.2500         8.84
      0.2510         8.98
      0.2520         9.07
      0.2530         9.18
      0.2540         9.10
      0.2550         9.19
      0.2560         9.31
      0.2570         9.29
      0.2580         9.22
      0.2590         9.10
      0.2600         9.11
      0.2610         9.11
      0.2620         9.11
      0.2630         9.05
      0.2640         9.03
      0.2650         8.99
      0.2660         8.99
      0.2670         8.98
      0.2680         8.90
      0.2690         8.86
      0.2700         8.82
      0.2710         8.72
      0.2720         8.70
      0.2730         8.64
      0.2740         8.71
      0.2750         8.66
      0.2760         8.65
      0.2770         8.66
      0.2780         8.74
      0.2790         8.89
      0.2800         8.82
      0.2810         8.85
      0.2820         8.83
      0.2830         8.89
      0.2840         8.91
      0.2850         8.90
      0.2860         8.89
      0.2870         8.86
      0.2880         8.83
      0.2890         8.82
      0.2900         8.85
      0.2910         8.82
      0.2920         8.79
      0.2930         8.83
      0.2940         8.75
      0.2950         8.77
      0.2960         8.71
      0.2970         8.69
      0.2980         8.62
      0.2990         8.57
      0.3000         8.65
      0.3010         8.61
      0.3020         8.69
      0.3030         8.62
      0.3040         8.58
      0.3050         8.69
      0.3060         8.74
      0.3070         8.81
      0.3080         8.83
      0.3090         8.85
      0.3100         8.93
      0.3110         8.91
      0.3120         8.93
      0.3130         8.95
      0.3140         8.99
      0.3150         8.98
      0.3160         8.98
      0.3170         8.98
      0.3180         8.90
      0.3190         8.90
      0.3200         8.89
      0.3210         8.90
      0.3220         8.89
      0.3230         8.91
      0.3240         8.87
      0.3250         8.75
      0.3260         8.69
      0.3270         8.61
      0.3280         8.61
      0.3290         8.58
      0.3300         8.47
      0.3310         8.53
      0.3320         8.51
      0.3330         8.47
      0.3340         8.50
      0.3350         8.57
      0.3360         8.59
      0.3370         8.62
      0.3380         8.73
      0.3390         8.70
      0.3400         8.66
      0.3410         8.63
      0.3420         8.61
      0.3430         8.66
      0.3440         8.77
      0.3450         8.81
      0.3460         8.81
      0.3470         8.83
      0.3480         8.82
      0.3490         8.85
      0.3500         8.90
      0.3510         8.86
      0.3520         8.85
      0.3530         8.78
      0.3540         8.71
      0.3550         8.62
      0.3560         8.54
      0.3570         8.46
      0.3580         8.45
      0.3590         8.42
      0.3600         8.43
      0.3610         8.47
      0.3620         8.50
      0.3630         8.46
      0.3640         8.42
      0.3650         8.50
      0.3660         8.54
      0.3670         8.62
      0.3680         8.69
      0.3690         8.71
      0.3700         8.70
      0.3710         8.74
      0.3720         8.78
      0.3730         8.80
      0.3740         8.88
      0.3750         8.82
      0.3760         8.87
      0.3770         8.94
      0.3780         8.89
      0.3790         8.90
      0.3800         8.91
      0.3810         8.89
      0.3820         8.87
      0.3830         8.82
      0.3840         8.82
      0.3850         8.67
      0.3860         8.67
      0.3870         8.63
      0.3880         8.58
      0.3890         8.47
      0.3900         8.46
      0.3910         8.41
      0.3920         8.46
      0.3930         8.50
      0.3940         8.51
      0.3950         8.65
      0.3960         8.69
      0.3970         8.67
      0.3980         8.78
      0.3990         8.76
      0.4000         8.88
      0.4010         8.92
      0.4020         8.90
      0.4030         8.92
      0.4040         8.86
      0.4050         8.82
      0.4060         8.80
      0.4070         8.77
      0.4080         8.72
      0.4090         8.70
      0.4100         8.69
      0.4110         8.71
      0.4120         8.58
      0.4130         8.55
      0.4140         8.54
      0.4150         8.49
      0.4160         8.49
      0.4170         8.51
      0.4180         8.46
      0.4190         8.54
      0.4200         8.45
      0.4210         8.45
      0.4220         8.47
      0.4230         8.53
      0.4240         8.59
      0.4250         8.78
      0.4260         8.79
      0.4270         8.82
      0.4280         8.90
      0.4290         9.02
      0.4300         9.10
      0.4310         9.05
      0.4320         9.06
      0.4330         9.09
      0.4340         9.05
      0.4350         9.06
      0.4360         8.98
      0.4370         8.92
      0.4380         8.86
      0.4390         8.84
      0.4400         8.81
      0.4410         8.80
      0.4420         8.82
      0.4430         8.81
      0.4440         8.78
      0.4450         8.76
      0.4460         8.68
      0.4470         8.70
      0.4480         8.73
      0.4490         8.76
      0.4500         8.76
      0.4510         8.80
      0.4520         8.87
      0.4530         8.91
      0.4540         8.95
      0.4550         8.96
      0.4560         9.05
      0.4570         9.12
      0.4580         9.13
      0.4590         9.12
      0.4600         9.13
      0.4610         9.04
      0.4620         9.04
      0.4630         9.01
      0.4640         9.03
      0.4650         9.01
      0.4660         9.05
      0.4670         9.04
      0.4680         8.99
      0.4690         8.93
      0.4700         8.88
      0.4710         8.86
      0.4720         8.88
      0.4730         8.85
      0.4740         8.82
      0.4750         8.78
      0.4760         8.72
      0.4770         8.66
      0.4780         8.73
      0.4790         8.76
      0.4800         8.74
      0.4810         8.84
      0.4820         8.85
      0.4830         8.89
      0.4840         8.93
      0.4850         8.97
      0.4860         9.08
      0.4870         9.02
      0.4880         9.10
      0.4890         9.06
      0.4900         9.09
      0.4910         9.12
      0.4920         9.09
      0.4930         9.10
      0.4940         9.05
      0.4950         9.08
      0.4960         9.00
      0.4970         9.00
      0.4980         9.00
      0.4990         8.96
      0.5000         8.98
      0.5010         8.93
      0.5020         8.86
      0.5030         8.92
      0.5040         8.86
      0.5050         8.76
      0.5060         8.64
      0.5070         8.62
      0.5080         8.62
      0.5090         8.64
      0.5100         8.57
      0.5110         8.62
      0.5120         8.65
      0.5130         8.66
      0.5140         8.78
      0.5150         8.78
      0.5160         8.89
      0.5170         8.92
      0.5180         8.88
      0.5190         8.82
      0.5200         8.81
      0.5210         9.36
      0.5220         9.32
      0.5230         9.21
      0.5240         8.72
      0.5250         8.78
      0.5260         8.78
      0.5270         8.80
      0.5280         8.65
      0.5290         8.68
      0.5300         8.69
      0.5310         8.67
      0.5320         8.69
      0.5330         8.59
      0.5340         8.54
      0.5350         8.61
      0.5360         8.68
      0.5370         8.66
      0.5380         8.72
      0.5390         8.76
      0.5400         8.80
      0.5410         8.87
      0.5420         8.91
      0.5430         8.99
      0.5440         9.00
      0.5450         8.99
      0.5460         9.03
      0.5470         9.07
      0.5480         9.13
      0.5490         9.13
      0.5500         9.16
      0.5510         9.06
      0.5520         8.98
      0.5530         9.01
      0.5540         8.93
      0.5550         8.81
      0.5560         8.76
      0.5570         8.77
      0.5580         8.81
      0.5590         8.77
      0.5600         8.76
      0.5610         8.61
      0.5620         8.57
      0.5630         8.54
      0.5640         8.56
      0.5650         8.57
      0.5660         8.57
      0.5670         8.53
      0.5680         8.61
      0.5690         8.61
      0.5700         8.57
      0.5710         8.60
      0.5720         8.65
      0.5730         8.68
      0.5740         8.85
      0.5750         8.96
      0.5760         8.92
      0.5770         8.92
      0.5780         8.80
      0.5790         8.88
      0.5800         8.94
      0.5810         8.96
      0.5820         9.01
      0.5830         8.97
      0.5840         8.94
      0.5850         8.94
      0.5860         9.00
      0.5870         8.94
      0.5880         8.82
      0.5890         8.80
      0.5900         8.82
      0.5910         8.82
      0.5920         8.81
      0.5930         8.85
      0.5940         8.74
      0.5950         8.70
      0.5960         8.74
      0.5970         8.80
      0.5980         8.85
      0.5990         8.89
      0.6000         8.77
      0.6010         8.78
      0.6020         8.84
      0.6030         8.88
      0.6040         8.86
      0.6050         8.82
      0.6060         8.74
      0.6070         8.84
      0.6080         8.93
      0.6090         8.92
      0.6100         8.90
      0.6110         8.90
      0.6120         8.90
      0.6130         8.86
      0.6140         8.86
      0.6150         8.84
      0.6160         8.73
      0.6170         8.66
      0.6180         8.58
      0.6190         8.55
      0.6200         8.57
      0.6210         8.54
      0.6220         8.50
      0.6230         8.49
      0.6240         8.50
      0.6250         8.55
      0.6260         8.62
      0.6270         8.59
      0.6280         8.54
      0.6290         8.53
      0.6300         8.53
      0.6310         8.57
      0.6320         8.60
      0.6330         8.62
      0.6340         8.57
      0.6350         8.60
      0.6360         8.68
      0.6370         8.62
      0.6380         8.73
      0.6390         8.66
      0.6400         8.68
      0.6410         8.69
      0.6420         8.64
      0.6430         8.61
      0.6440         8.62
      0.6450         8.57
      0.6460         8.53
      0.6470         8.58
      0.6480         8.58
      0.6490         8.61
      0.6500         8.56
      0.6510         8.57
      0.6520         8.56
      0.6530         8.58
      0.6540         8.61
      0.6550         8.61
      0.6560         8.60
      0.6570         8.68
      0.6580         8.64
      0.6590         8.65
      0.6600         8.70
      0.6610         8.79
      0.6620         8.77
      0.6630         8.78
      0.6640         8.78
      0.6650         8.85
      0.6660         8.84
      0.6670         8.73
      0.6680         8.73
      0.6690         8.70
      0.6700         8.72
      0.6710         8.69
      0.6720         8.66
      0.6730         8.65
      0.6740         8.63
      0.6750         8.61
      0.6760         8.55
      0.6770         8.51
      0.6780         8.57
      0.6790         8.65
      0.6800         8.54
      0.6810         8.50
      0.6820         8.50
      0.6830         8.50
      0.6840         8.51
      0.6850         8.50
      0.6860         8.53
      0.6870         8.58
      0.6880         8.62
      0.6890         8.66
      0.6900         8.67
      0.6910         8.70
      0.6920         8.78
      0.6930         8.71
      0.6940         8.74
      0.6950         8.67
      0.6960         8.75
      0.6970         8.75
      0.6980         8.65
      0.6990         8.59
      0.7000         8.62
      0.7010         8.59
      0.7020         8.59
      0.7030         8.67
      0.7040         8.62
      0.7050         8.58
      0.7060         8.57
      0.7070         8.61
      0.7080         8.55
      0.7090         8.58
      0.7100         8.57
      0.7110         8.50
      0.7120         8.41
      0.7130         8.45
      0.7140         8.39
      0.7150         8.52
      0.7160         8.53
      0.7170         8.58
      0.7180         8.68
      0.7190         8.70
      0.7200         8.73
      0.7210         8.77
      0.7220         8.81
      0.7230         8.69
      0.7240         8.69
      0.7250         8.66
      0.7260         8.69
      0.7270         8.66
      0.7280         8.66
      0.7290         8.61
      0.7300         8.65
      0.7310         8.65
      0.7320         8.70
      0.7330         8.76
      0.7340         8.73
      0.7350         8.69
      0.7360         8.65
      0.7370         8.66
      0.7380         8.63
      0.7390         8.57
      0.7400         8.60
      0.7410         8.60
      0.7420         8.56
      0.7430         8.71
      0.7440         8.76
      0.7450         8.76
      0.7460         8.76
      0.7470         8.75
      0.7480         8.76
      0.7490         8.81
      0.7500         8.80
      0.7510         8.84
      0.7520         8.81
      0.7530         8.76
      0.7540         8.83
      0.7550         8.81
      0.7560         8.83
      0.7570         8.76
      0.7580         8.70
      0.7590         8.65
      0.7600         8.53
      0.7610         8.56
      0.7620         8.57
      0.7630         8.42
      0.7640         8.32
      0.7650         8.34
      0.7660         8.28
      0.7670         8.28
