        Time   Palpation Force
      0.0000         1.00
      0.0010         1.00
      0.0020         1.00
      0.0030         1.00
      0.0040         1.11
      0.0050         1.32
      0.0060         1.54
      0.0070         1.75
      0.0080         1.94
      0.0090         2.07
      0.0100         2.25
      0.0110         2.47
      0.0120         2.65
      0.0130         2.91
      0.0140         3.11
      0.0150         3.26
      0.0160         3.45
      0.0170         3.61
      0.0180         3.84
      0.0190         4.04
      0.0200         4.03
      0.0210         4.07
      0.0220         3.92
      0.0230         3.84
      0.0240         3.90
      0.0250         3.83
      0.0260         3.82
      0.0270         3.82
      0.0280         3.84
      0.0290         3.96
      0.0300         4.04
      0.0310         4.03
      0.0320         4.11
      0.0330         4.04
      0.0340         4.08
      0.0350         4.18
      0.0360         4.18
      0.0370         4.18
      0.0380         4.19
      0.0390         4.15
      0.0400         4.15
      0.0410         4.16
      0.0420         4.28
      0.0430         4.27
      0.0440         4.14
      0.0450         4.18
      0.0460         4.12
      0.0470         4.06
      0.0480         4.06
      0.0490         4.02
      0.0500         3.96
      0.0510         3.96
      0.0520         3.87
      0.0530         3.86
      0.0540         3.79
      0.0550         3.78
      0.0560         3.83
      0.0570         3.87
      0.0580         3.82
      0.0590         3.88
      0.0600         3.94
      0.0610         3.87
      0.0620         3.84
      0.0630         3.91
      0.0640         3.91
      0.0650         3.95
      0.0660         4.06
      0.0670         4.15
      0.0680         4.04
      0.0690         4.06
      0.0700         4.06
      0.0710         4.04
      0.0720         4.03
      0.0730         4.04
      0.0740         4.03
      0.0750         3.99
      0.0760         3.90
      0.0770         3.84
      0.0780         3.79
      0.0790         3.76
      0.0800         3.67
      0.0810         3.63
      0.0820         3.60
      0.0830         3.60
      0.0840         3.64
      0.0850         3.67
      0.0860         3.59
      0.0870         3.55
      0.0880         3.67
      0.0890         3.64
      0.0900         3.64
      0.0910         3.72
      0.0920         3.83
      0.0930         3.86
      0.0940         3.98
      0.0950         4.02
      0.0960         4.07
      0.0970         4.16
      0.0980         4.23
      0.0990         4.23
      0.1000         4.31
      0.1010         4.40
      0.1020         4.39
      0.1030         4.44
      0.1040         4.48
      0.1050         4.47
      0.1060         4.48
      0.1070         4.48
      0.1080         4.42
      0.1090         4.40
      0.1100         4.43
      0.1110         4.38
      0.1120         4.30
      0.1130         4.27
      0.1140         4.23
      0.1150         4.23
      0.1160         4.28
      0.1170         4.20
      0.1180         4.26
      0.1190         4.30
      0.1200         4.28
      0.1210         4.28
      0.1220         4.28
      0.1230         4.23
      0.1240         4.24
      0.1250         4.19
      0.1260         4.19
      0.1270         4.23
      0.1280         4.28
      0.1290         4.31
      0.1300         4.22
      0.1310         4.11
      0.1320         4.10
      0.1330         4.06
      0.1340         4.03
      0.1350         3.96
      0.1360         3.88
      0.1370         3.91
      0.1380         3.83
      0.1390         3.75
      0.1400         3.70
      0.1410         3.68
      0.1420         3.70
      0.1430         3.72
      0.1440         3.71
      0.1450         3.75
      0.1460         3.80
      0.1470         3.80
      0.1480         3.80
      0.1490         3.78
      0.1500         3.86
      0.1510         3.99
      0.1520         4.07
      0.1530         4.18
      0.1540         3.61
      0.1550         3.67
      0.1560         3.73
      0.1570         4.30
      0.1580         4.39
      0.1590         4.35
      0.1600         4.34
      0.1610         4.32
      0.1620         4.30
      0.1630         4.16
      0.1640         4.07
      0.1650         4.03
      0.1660         3.94
      0.1670         3.82
      0.1680         3.77
      0.1690         3.73
      0.1700         3.71
      0.1710         3.72
      0.1720         3.69
      0.1730         3.61
      0.1740         3.60
      0.1750         3.55
      0.1760         3.48
      0.1770         3.49
      0.1780         3.47
      0.1790         3.53
      0.1800         3.61
      0.1810         3.61
      0.1820         3.67
      0.1830         3.76
      0.1840         3.88
      0.1850         3.87
      0.1860         3.90
      0.1870         4.02
      0.1880         4.03
      0.1890         4.06
      0.1900         4.08
      0.1910         4.03
      0.1920         3.98
      0.1930         4.02
      0.1940         3.96
      0.1950         3.99
      0.1960         3.98
      0.1970         3.88
      0.1980         3.88
      0.1990         3.91
      0.2000         3.94
      0.2010         3.94
      0.2020         3.99
      0.2030         3.98
      0.2040         3.94
      0.2050         4.02
      0.2060         4.14
      0.2070         4.12
      0.2080         4.11
      0.2090         4.14
      0.2100         4.16
      0.2110         4.11
      0.2120         4.22
      0.2130         4.20
      0.2140         4.26
      0.2150         4.28
      0.2160         4.35
      0.2170         4.44
      0.2180         4.38
      0.2190         4.34
      0.2200         4.23
      0.2210         4.26
      0.2220         4.16
      0.2230         4.14
      0.2240         4.07
      0.2250         4.03
      0.2260         3.92
      0.2270         3.88
      0.2280         3.94
      0.2290         3.92
      0.2300         3.87
      0.2310         3.88
      0.2320         3.79
      0.2330         3.72
      0.2340         3.72
      0.2350         3.70
      0.2360         3.71
      0.2370         3.72
      0.2380         3.74
      0.2390         3.72
      0.2400         3.78
      0.2410         3.76
      0.2420         3.83
      0.2430         3.84
      0.2440         3.87
      0.2450         3.78
      0.2460         3.82
      0.2470         3.75
      0.2480         3.74
      0.2490         3.75
      0.2500         3.74
      0.2510         3.79
      0.2520         3.82
      0.2530         3.84
      0.2540         3.83
      0.2550         3.83
      0.2560         3.80
      0.2570         3.82
      0.2580         3.90
      0.2590         3.91
      0.2600         3.92
      0.2610         3.88
      0.2620         3.87
      0.2630         3.87
      0.2640         4.00
      0.2650         4.12
      0.2660         4.16
      0.2670         4.24
      0.2680         4.24
      0.2690         4.15
      0.2700         4.11
      0.2710         4.07
      0.2720         4.10
      0.2730         4.08
      0.2740         4.11
      0.2750         4.15
      0.2760         4.14
      0.2770         4.00
      0.2780         3.95
      0.2790         3.98
      0.2800         3.94
      0.2810         3.96
      0.2820         3.98
      0.2830         3.96
      0.2840         3.84
      0.2850         3.80
      0.2860         3.72
      0.2870         3.67
      0.2880         3.63
      0.2890         3.75
      0.2900         3.84
      0.2910         3.86
      0.2920         3.83
      0.2930         3.88
      0.2940         3.95
      0.2950         3.90
      0.2960         3.88
      0.2970         3.98
      0.2980         4.04
      0.2990         4.06
      0.3000         4.14
      0.3010         4.12
      0.3020         4.04
      0.3030         4.11
      0.3040         4.12
      0.3050         4.10
      0.3060         4.10
      0.3070         4.18
      0.3080         4.15
      0.3090         4.12
      0.3100         4.06
      0.3110         3.99
      0.3120         3.98
      0.3130         3.88
      0.3140         3.83
      0.3150         3.86
      0.3160         3.87
      0.3170         3.88
      0.3180         3.74
      0.3190         3.72
      0.3200         3.64
      0.3210         3.59
      0.3220         3.66
      0.3230         3.60
      0.3240         3.57
      0.3250         3.63
      0.3260         3.63
      0.3270         3.67
      0.3280         3.79
      0.3290         3.82
      0.3300         3.87
      0.3310         3.96
      0.3320         4.02
      0.3330         4.12
      0.3340         4.14
      0.3350         4.10
      0.3360         3.98
      0.3370         3.92
      0.3380         3.94
      0.3390         3.91
      0.3400         3.92
      0.3410         3.92
      0.3420         3.91
      0.3430         3.92
      0.3440         3.90
      0.3450         3.82
      0.3460         3.87
      0.3470         3.80
      0.3480         3.67
      0.3490         3.67
      0.3500         3.68
      0.3510         3.64
      0.3520         3.60
      0.3530         3.61
      0.3540         3.64
      0.3550         3.69
      0.3560         3.80
      0.3570         3.88
      0.3580         4.00
      0.3590         4.00
      0.3600         3.97
      0.3610         4.07
      0.3620         4.03
      0.3630         4.01
      0.3640         4.03
      0.3650         4.12
      0.3660         3.97
      0.3670         3.93
      0.3680         3.95
      0.3690         3.91
      0.3700         3.91
      0.3710         3.91
      0.3720         3.87
      0.3730         3.84
      0.3740         3.87
      0.3750         3.77
      0.3760         3.73
      0.3770         3.71
      0.3780         3.63
      0.3790         3.68
      0.3800         3.71
      0.3810         3.67
      0.3820         3.69
      0.3830         3.76
      0.3840         3.83
      0.3850         3.73
      0.3860         3.81
      0.3870         3.85
      0.3880         3.94
      0.3890         3.96
      0.3900         3.94
      0.3910         3.88
      0.3920         3.88
      0.3930         3.81
      0.3940         3.79
      0.3950         3.84
      0.3960         3.83
      0.3970         3.77
      0.3980         3.79
      0.3990         3.77
      0.4000         3.79
      0.4010         3.75
      0.4020         3.79
      0.4030         3.75
      0.4040         3.71
      0.4050         3.76
      0.4060         3.76
      0.4070         3.77
      0.4080         3.75
      0.4090         3.76
      0.4100         3.77
      0.4110         3.85
      0.4120         3.84
      0.4130         3.89
      0.4140         3.89
      0.4150         3.92
      0.4160         4.00
      0.4170         4.03
      0.4180         4.08
      0.4190         4.00
      0.4200         3.96
      0.4210         4.03
      0.4220         3.95
      0.4230         3.99
      0.4240         3.95
      0.4250         3.91
      0.4260         3.93
      0.4270         3.87
      0.4280         3.85
      0.4290         3.85
      0.4300         3.77
      0.4310         3.77
      0.4320         3.80
      0.4330         3.79
      0.4340         3.76
      0.4350         3.79
      0.4360         3.75
      0.4370         3.67
      0.4380         3.68
      0.4390         3.78
      0.4400         3.82
      0.4410         3.86
      0.4420         3.96
      0.4430         3.92
      0.4440         4.00
      0.4450         4.04
      0.4460         4.00
      0.4470         4.08
      0.4480         4.06
      0.4490         4.08
      0.4500         4.16
      0.4510         4.20
      0.4520         4.26
      0.4530         4.24
      0.4540         4.27
      0.4550         4.28
      0.4560         4.24
      0.4570         4.30
      0.4580         4.30
      0.4590         4.23
      0.4600         4.22
      0.4610         4.16
      0.4620         4.15
      0.4630         4.12
      0.4640         4.14
      0.4650         4.22
      0.4660         4.23
      0.4670         4.31
      0.4680         4.34
      0.4690         4.30
      0.4700         4.27
      0.4710         4.28
      0.4720         4.24
      0.4730         4.24
      0.4740         4.23
      0.4750         4.24
      0.4760         4.25
      0.4770         4.33
      0.4780         4.27
      0.4790         4.27
      0.4800         4.25
      0.4810         4.23
      0.4820         4.20
      0.4830         4.20
      0.4840         4.19
      0.4850         4.15
      0.4860         4.15
      0.4870         4.00
      0.4880         3.95
      0.4890         3.92
      0.4900         3.93
      0.4910         3.85
      0.4920         3.81
      0.4930         3.87
      0.4940         3.91
      0.4950         3.85
      0.4960         3.89
      0.4970         3.87
      0.4980         3.87
      0.4990         3.92
      0.5000         3.92
      0.5010         3.93
      0.5020         3.91
      0.5030         3.96
      0.5040         4.00
      0.5050         3.96
      0.5060         4.01
      0.5070         4.11
      0.5080         4.17
      0.5090         4.21
      0.5100         4.23
      0.5110         4.19
      0.5120         4.19
      0.5130         4.13
      0.5140         4.09
      0.5150         4.11
      0.5160         4.08
      0.5170         4.01
      0.5180         3.99
      0.5190         3.92
      0.5200         3.97
      0.5210         3.97
      0.5220         3.97
      0.5230         3.95
      0.5240         3.93
      0.5250         3.97
      0.5260         3.95
      0.5270         3.83
      0.5280         3.84
      0.5290         3.81
      0.5300         3.83
      0.5310         3.89
      0.5320         3.99
      0.5330         4.08
      0.5340         4.11
      0.5350         4.05
      0.5360         4.09
      0.5370         4.11
      0.5380         4.16
      0.5390         4.20
      0.5400         4.15
      0.5410         4.12
      0.5420         4.07
      0.5430         4.07
      0.5440         3.97
      0.5450         3.93
      0.5460         3.95
      0.5470         3.93
      0.5480         3.88
      0.5490         3.93
      0.5500         3.89
      0.5510         3.89
      0.5520         3.80
      0.5530         3.73
      0.5540         3.67
      0.5550         3.77
      0.5560         3.76
      0.5570         3.88
      0.5580         3.85
      0.5590         3.87
      0.5600         3.96
      0.5610         4.03
      0.5620         4.05
      0.5630         4.11
      0.5640         4.17
      0.5650         4.25
      0.5660         4.27
      0.5670         4.39
      0.5680         4.40
      0.5690         4.35
      0.5700         4.38
      0.5710         4.39
      0.5720         4.42
      0.5730         4.48
      0.5740         4.56
      0.5750         4.48
      0.5760         4.43
      0.5770         4.35
      0.5780         4.34
      0.5790         4.32
      0.5800         4.23
      0.5810         4.12
      0.5820         4.16
      0.5830         4.11
      0.5840         4.18
      0.5850         4.15
      0.5860         4.15
      0.5870         4.15
      0.5880         4.22
      0.5890         4.23
      0.5900         4.26
      0.5910         4.23
      0.5920         4.23
      0.5930         4.14
      0.5940         4.06
      0.5950         4.01
      0.5960         4.04
      0.5970         3.99
      0.5980         3.97
      0.5990         3.97
      0.6000         3.95
      0.6010         4.00
      0.6020         3.99
      0.6030         4.03
      0.6040         3.96
      0.6050         3.92
      0.6060         3.91
      0.6070         3.89
      0.6080         3.89
      0.6090         3.83
      0.6100         3.85
      0.6110         3.84
      0.6120         3.91
      0.6130         3.89
      0.6140         3.91
      0.6150         3.92
      0.6160         3.93
      0.6170         3.96
      0.6180         4.03
      0.6190         4.04
      0.6200         4.08
      0.6210         4.08
      0.6220         4.05
      0.6230         4.04
      0.6240         4.04
      0.6250         4.00
      0.6260         4.04
      0.6270         3.97
      0.6280         4.01
      0.6290         4.05
      0.6300         3.87
      0.6310         3.83
      0.6320         3.75
      0.6330         3.76
      0.6340         3.83
      0.6350         3.88
      0.6360         3.85
      0.6370         3.88
      0.6380         3.85
      0.6390         3.89
      0.6400         3.84
      0.6410         3.88
      0.6420         3.95
      0.6430         3.93
      0.6440         3.96
      0.6450         4.07
      0.6460         3.97
      0.6470         4.03
      0.6480         3.99
      0.6490         4.06
      0.6500         4.22
      0.6510         4.35
      0.6520         4.40
      0.6530         4.39
      0.6540         4.38
      0.6550         4.36
      0.6560         4.39
      0.6570         4.44
      0.6580         4.44
      0.6590         4.38
      0.6600         4.44
      0.6610         4.39
      0.6620         4.38
      0.6630         4.31
      0.6640         4.21
      0.6650         4.15
      0.6660         4.13
      0.6670         4.24
      0.6680         4.26
      0.6690         4.26
      0.6700         4.22
      0.6710         4.11
      0.6720         4.06
      0.6730         4.11
      0.6740         4.11
      0.6750         4.18
      0.6760         4.22
      0.6770         4.16
      0.6780         4.22
      0.6790         4.23
      0.6800         4.23
      0.6810         4.27
      0.6820         4.26
      0.6830         4.27
      0.6840         4.31
      0.6850         4.34
      0.6860         4.30
      0.6870         4.18
      0.6880         4.07
      0.6890         4.00
      0.6900         3.96
      0.6910         3.96
      0.6920         4.01
      0.6930         4.00
      0.6940         3.99
      0.6950         3.87
      0.6960         3.84
      0.6970         3.89
      0.6980         3.87
      0.6990         3.83
      0.7000         3.80
      0.7010         3.82
      0.7020         3.82
      0.7030         3.86
      0.7040         3.88
      0.7050         3.90
      0.7060         4.06
      0.7070         4.10
      0.7080         4.16
      0.7090         4.19
      0.7100         4.20
      0.7110         4.23
      0.7120         4.24
      0.7130         4.31
      0.7140         4.27
      0.7150         4.36
      0.7160         4.32
      0.7170         4.20
      0.7180         4.16
      0.7190         4.16
      0.7200         4.16
      0.7210         4.16
      0.7220         4.17
      0.7230         4.16
      0.7240         4.16
      0.7250         4.08
      0.7260         4.05
      0.7270         4.05
      0.7280         4.05
      0.7290         4.04
      0.7300         4.05
      0.7310         4.07
      0.7320         4.07
      0.7330         4.05
      0.7340         4.03
      0.7350         4.01
      0.7360         3.99
      0.7370         4.07
      0.7380         4.09
      0.7390         4.16
      0.7400         4.27
      0.7410         4.29
      0.7420         4.21
      0.7430         4.21
      0.7440         4.20
      0.7450         4.21
      0.7460         4.16
      0.7470         4.17
      0.7480         4.17
      0.7490         4.19
      0.7500         4.19
      0.7510         4.17
      0.7520         4.16
      0.7530         4.09
      0.7540         4.17
      0.7550         4.15
      0.7560         4.13
      0.7570         4.15
      0.7580         4.12
      0.7590         4.19
      0.7600         4.13
      0.7610         4.09
      0.7620         4.19
      0.7630         4.20
      0.7640         4.27
      0.7650         4.38
      0.7660         4.38
      0.7670         4.39
