        Time   Palpation Force
      0.0000         1.00
      0.0010         1.00
      0.0020         1.00
      0.0030         1.00
      0.0040         1.00
      0.0050         1.16
      0.0060         1.42
      0.0070         1.62
      0.0080         1.80
      0.0090         1.97
      0.0100         2.18
      0.0110         2.38
      0.0120         2.62
      0.0130         2.86
      0.0140         3.06
      0.0150         3.29
      0.0160         3.52
      0.0170         3.79
      0.0180         4.04
      0.0190         4.22
      0.0200         4.26
      0.0210         4.29
      0.0220         4.23
      0.0230         4.27
      0.0240         4.22
      0.0250         4.29
      0.0260         4.23
      0.0270         4.23
      0.0280         4.27
      0.0290         4.33
      0.0300         4.34
      0.0310         4.34
      0.0320         4.27
      0.0330         4.19
      0.0340         4.25
      0.0350         4.26
      0.0360         4.25
      0.0370         4.19
      0.0380         4.23
      0.0390         4.29
      0.0400         4.27
      0.0410         4.26
      0.0420         4.37
      0.0430         4.39
      0.0440         4.42
      0.0450         4.37
      0.0460         4.33
      0.0470         4.34
      0.0480         4.31
      0.0490         4.26
      0.0500         4.33
      0.0510         4.29
      0.0520         4.34
      0.0530         4.35
      0.0540         4.27
      0.0550         4.14
      0.0560         4.11
      0.0570         4.13
      0.0580         4.07
      0.0590         3.99
      0.0600         3.93
      0.0610         3.90
      0.0620         3.85
      0.0630         3.83
      0.0640         3.81
      0.0650         3.85
      0.0660         3.85
      0.0670         3.81
      0.0680         3.83
      0.0690         3.89
      0.0700         3.74
      0.0710         3.77
      0.0720         3.77
      0.0730         3.86
      0.0740         3.97
      0.0750         4.01
      0.0760         4.06
      0.0770         4.03
      0.0780         3.97
      0.0790         4.06
      0.0800         4.13
      0.0810         4.10
      0.0820         4.07
      0.0830         4.10
      0.0840         4.05
      0.0850         3.98
      0.0860         3.99
      0.0870         4.02
      0.0880         3.93
      0.0890         3.87
      0.0900         3.97
      0.0910         3.97
      0.0920         3.91
      0.0930         3.85
      0.0940         3.81
      0.0950         3.86
      0.0960         3.82
      0.0970         3.82
      0.0980         3.85
      0.0990         3.85
      0.1000         3.77
      0.1010         3.78
      0.1020         3.87
      0.1030         3.82
      0.1040         3.87
      0.1050         3.97
      0.1060         4.02
      0.1070         3.98
      0.1080         4.00
      0.1090         4.09
      0.1100         4.09
      0.1110         4.05
      0.1120         4.10
      0.1130         4.14
      0.1140         4.05
      0.1150         4.10
      0.1160         4.09
      0.1170         4.09
      0.1180         4.02
      0.1190         3.94
      0.1200         3.98
      0.1210         4.02
      0.1220         3.94
      0.1230         3.99
      0.1240         3.97
      0.1250         3.86
      0.1260         3.82
      0.1270         3.89
      0.1280         4.01
      0.1290         4.04
      0.1300         4.04
      0.1310         4.09
      0.1320         4.04
      0.1330         3.93
      0.1340         3.96
      0.1350         3.85
      0.1360         3.89
      0.1370         3.91
      0.1380         4.01
      0.1390         4.05
      0.1400         4.01
      0.1410         3.98
      0.1420         3.97
      0.1430         3.94
      0.1440         3.94
      0.1450         3.94
      0.1460         3.97
      0.1470         3.90
      0.1480         3.82
      0.1490         3.78
      0.1500         3.69
      0.1510         3.67
      0.1520         3.67
      0.1530         3.74
      0.1540         3.87
      0.1550         3.94
      0.1560         3.91
      0.1570         3.86
      0.1580         3.86
      0.1590         3.79
      0.1600         3.90
      0.1610         3.91
      0.1620         3.98
      0.1630         4.04
      0.1640         4.06
      0.1650         4.09
      0.1660         4.02
      0.1670         4.06
      0.1680         4.03
      0.1690         4.03
      0.1700         4.09
      0.1710         4.10
      0.1720         4.07
      0.1730         4.06
      0.1740         3.94
      0.1750         3.87
      0.1760         3.85
      0.1770         3.86
      0.1780         3.82
      0.1790         3.85
      0.1800         3.75
      0.1810         3.73
      0.1820         3.74
      0.1830         3.67
      0.1840         3.69
      0.1850         3.73
      0.1860         3.86
      0.1870         3.90
      0.1880         3.96
      0.1890         3.96
      0.1900         3.96
      0.1910         3.98
      0.1920         4.05
      0.1930         4.00
      0.1940         4.00
      0.1950         4.01
      0.1960         4.04
      0.1970         3.98
      0.1980         3.97
      0.1990         3.94
      0.2000         3.98
      0.2010         3.99
      0.2020         3.95
      0.2030         3.95
      0.2040         3.93
      0.2050         3.87
      0.2060         3.75
      0.2070         3.71
      0.2080         3.74
      0.2090         3.71
      0.2100         3.74
      0.2110         3.67
      0.2120         3.66
      0.2130         3.62
      0.2140         3.66
      0.2150         3.78
      0.2160         3.89
      0.2170         4.01
      0.2180         4.05
      0.2190         4.11
      0.2200         4.13
      0.2210         4.14
      0.2220         4.09
      0.2230         4.14
      0.2240         4.15
      0.2250         4.17
      0.2260         4.21
      0.2270         4.23
      0.2280         4.17
      0.2290         4.11
      0.2300         4.01
      0.2310         4.06
      0.2320         4.06
      0.2330         4.17
      0.2340         4.11
      0.2350         4.03
      0.2360         3.98
      0.2370         3.93
      0.2380         3.90
      0.2390         3.87
      0.2400         3.82
      0.2410         3.82
      0.2420         3.91
      0.2430         3.89
      0.2440         3.93
      0.2450         3.98
      0.2460         4.00
      0.2470         3.94
      0.2480         4.05
      0.2490         4.12
      0.2500         4.20
      0.2510         4.09
      0.2520         4.05
      0.2530         4.01
      0.2540         4.05
      0.2550         4.01
      0.2560         3.94
      0.2570         3.90
      0.2580         3.89
      0.2590         3.89
      0.2600         3.89
      0.2610         3.81
      0.2620         3.76
      0.2630         3.76
      0.2640         3.74
      0.2650         3.74
      0.2660         3.70
      0.2670         3.72
      0.2680         3.57
      0.2690         3.50
      0.2700         3.49
      0.2710         3.61
      0.2720         3.68
      0.2730         3.76
      0.2740         3.77
      0.2750         3.78
      0.2760         3.80
      0.2770         3.86
      0.2780         3.98
      0.2790         3.96
      0.2800         4.04
      0.2810         4.12
      0.2820         4.12
      0.2830         4.09
      0.2840         4.06
      0.2850         4.02
      0.2860         4.01
      0.2870         4.04
      0.2880         4.06
      0.2890         4.08
      0.2900         4.06
      0.2910         3.98
      0.2920         3.94
      0.2930         3.89
      0.2940         3.86
      0.2950         3.93
      0.2960         3.94
      0.2970         3.89
      0.2980         3.83
      0.2990         3.89
      0.3000         3.83
      0.3010         3.97
      0.3020         4.04
      0.3030         4.12
      0.3040         4.14
      0.3050         4.16
      0.3060         4.20
      0.3070         4.21
      0.3080         4.30
      0.3090         4.36
      0.3100         4.41
      0.3110         4.44
      0.3120         4.45
      0.3130         4.42
      0.3140         4.42
      0.3150         4.37
      0.3160         4.32
      0.3170         4.28
      0.3180         4.21
      0.3190         4.21
      0.3200         4.26
      0.3210         4.05
      0.3220         4.02
      0.3230         3.93
      0.3240         3.90
      0.3250         3.93
      0.3260         3.96
      0.3270         3.88
      0.3280         3.84
      0.3290         3.80
      0.3300         3.78
      0.3310         3.84
      0.3320         3.85
      0.3330         3.94
      0.3340         4.01
      0.3350         4.00
      0.3360         4.04
      0.3370         4.14
      0.3380         4.14
      0.3390         4.14
      0.3400         4.12
      0.3410         4.16
      0.3420         4.17
      0.3430         4.22
      0.3440         4.20
      0.3450         4.20
      0.3460         4.10
      0.3470         4.16
      0.3480         4.16
      0.3490         4.16
      0.3500         4.10
      0.3510         4.09
      0.3520         4.09
      0.3530         4.02
      0.3540         3.94
      0.3550         3.96
      0.3560         4.02
      0.3570         3.98
      0.3580         4.01
      0.3590         3.94
      0.3600         3.93
      0.3610         3.97
      0.3620         3.96
      0.3630         3.92
      0.3640         3.98
      0.3650         3.93
      0.3660         4.01
      0.3670         4.06
      0.3680         4.10
      0.3690         4.14
      0.3700         4.21
      0.3710         4.22
      0.3720         4.22
      0.3730         4.25
      0.3740         4.24
      0.3750         4.22
      0.3760         4.09
      0.3770         4.06
      0.3780         4.01
      0.3790         4.01
      0.3800         4.00
      0.3810         4.05
      0.3820         4.04
      0.3830         4.00
      0.3840         3.92
      0.3850         3.93
      0.3860         3.88
      0.3870         3.81
      0.3880         3.77
      0.3890         3.74
      0.3900         3.78
      0.3910         3.76
      0.3920         3.82
      0.3930         3.76
      0.3940         3.81
      0.3950         3.92
      0.3960         3.94
      0.3970         3.97
      0.3980         4.00
      0.3990         4.05
      0.4000         4.10
      0.4010         4.05
      0.4020         4.01
      0.4030         4.06
      0.4040         4.05
      0.4050         4.02
      0.4060         4.00
      0.4070         3.93
      0.4080         3.94
      0.4090         3.93
      0.4100         3.88
      0.4110         3.85
      0.4120         3.77
      0.4130         3.77
      0.4140         3.77
      0.4150         3.73
      0.4160         3.76
      0.4170         3.78
      0.4180         3.85
      0.4190         3.92
      0.4200         3.90
      0.4210         3.93
      0.4220         3.97
      0.4230         4.01
      0.4240         4.09
      0.4250         4.18
      0.4260         4.24
      0.4270         4.33
      0.4280         4.33
      0.4290         4.37
      0.4300         4.41
      0.4310         4.43
      0.4320         4.41
      0.4330         4.47
      0.4340         4.39
      0.4350         4.32
      0.4360         4.28
      0.4370         4.17
      0.4380         4.17
      0.4390         4.16
      0.4400         4.16
      0.4410         4.09
      0.4420         4.08
      0.4430         4.02
      0.4440         4.01
      0.4450         3.94
      0.4460         4.01
      0.4470         4.00
      0.4480         4.02
      0.4490         4.02
      0.4500         4.00
      0.4510         4.01
      0.4520         4.06
      0.4530         4.08
      0.4540         4.12
      0.4550         4.12
      0.4560         4.17
      0.4570         4.24
      0.4580         4.19
      0.4590         4.20
      0.4600         4.16
      0.4610         4.17
      0.4620         4.13
      0.4630         4.13
      0.4640         4.08
      0.4650         4.05
      0.4660         4.01
      0.4670         3.98
      0.4680         3.93
      0.4690         3.89
      0.4700         3.88
      0.4710         3.82
      0.4720         3.81
      0.4730         3.77
      0.4740         3.86
      0.4750         3.85
      0.4760         3.80
      0.4770         3.84
      0.4780         3.86
      0.4790         3.84
      0.4800         3.92
      0.4810         3.94
      0.4820         4.02
      0.4830         4.13
      0.4840         4.17
      0.4850         4.20
      0.4860         4.20
      0.4870         4.20
      0.4880         4.25
      0.4890         4.32
      0.4900         4.33
      0.4910         4.38
      0.4920         4.40
      0.4930         4.40
      0.4940         4.33
      0.4950         4.36
      0.4960         4.44
      0.4970         4.36
      0.4980         4.38
      0.4990         4.39
      0.5000         4.34
      0.5010         4.33
      0.5020         4.29
      0.5030         4.18
      0.5040         4.17
      0.5050         4.14
      0.5060         4.18
      0.5070         4.22
      0.5080         4.20
      0.5090         4.20
      0.5100         4.26
      0.5110         4.30
      0.5120         4.26
      0.5130         4.29
      0.5140         4.28
      0.5150         4.29
      0.5160         4.28
      0.5170         4.34
      0.5180         4.30
      0.5190         4.32
      0.5200         4.25
      0.5210         4.26
      0.5220         4.28
      0.5230         4.25
      0.5240         4.33
      0.5250         4.34
      0.5260         4.30
      0.5270         4.28
      0.5280         4.28
      0.5290         4.21
      0.5300         4.09
      0.5310         4.06
      0.5320         4.14
      0.5330         4.17
      0.5340         4.19
      0.5350         4.20
      0.5360         4.27
      0.5370         4.24
      0.5380         4.36
      0.5390         4.32
      0.5400         4.43
      0.5410         4.51
      0.5420         4.53
      0.5430         4.57
      0.5440         4.45
      0.5450         4.48
      0.5460         4.48
      0.5470         4.52
      0.5480         4.49
      0.5490         4.49
      0.5500         4.46
      0.5510         4.38
      0.5520         4.30
      0.5530         4.30
      0.5540         4.32
      0.5550         4.34
      0.5560         4.28
      0.5570         4.21
      0.5580         4.05
      0.5590         4.02
      0.5600         3.97
      0.5610         3.86
      0.5620         3.84
      0.5630         3.92
      0.5640         3.98
      0.5650         4.00
      0.5660         3.97
      0.5670         4.01
      0.5680         4.06
      0.5690         4.12
      0.5700         4.21
      0.5710         4.29
      0.5720         4.29
      0.5730         4.32
      0.5740         4.29
      0.5750         4.26
      0.5760         4.21
      0.5770         4.29
      0.5780         4.29
      0.5790         4.29
      0.5800         4.28
      0.5810         4.30
      0.5820         4.36
      0.5830         4.33
      0.5840         4.33
      0.5850         4.29
      0.5860         4.36
      0.5870         4.25
      0.5880         4.24
      0.5890         4.18
      0.5900         4.13
      0.5910         4.14
      0.5920         4.17
      0.5930         4.13
      0.5940         4.18
      0.5950         4.24
      0.5960         4.36
      0.5970         4.36
      0.5980         4.44
      0.5990         4.49
      0.6000         4.48
      0.6010         4.48
      0.6020         4.41
      0.6030         4.34
      0.6040         4.37
      0.6050         4.39
      0.6060         4.39
      0.6070         4.44
      0.6080         4.35
      0.6090         4.35
      0.6100         4.36
      0.6110         4.28
      0.6120         4.24
      0.6130         4.20
      0.6140         4.13
      0.6150         4.04
      0.6160         3.93
      0.6170         3.94
      0.6180         3.94
      0.6190         3.93
      0.6200         3.93
      0.6210         3.92
      0.6220         3.99
      0.6230         4.04
      0.6240         4.04
      0.6250         4.04
      0.6260         4.05
      0.6270         4.04
      0.6280         4.12
      0.6290         4.13
      0.6300         4.13
      0.6310         4.17
      0.6320         4.27
      0.6330         4.31
      0.6340         4.32
      0.6350         4.33
      0.6360         4.35
      0.6370         4.33
      0.6380         4.31
      0.6390         4.22
      0.6400         4.28
      0.6410         4.30
      0.6420         4.24
      0.6430         4.20
      0.6440         4.14
      0.6450         4.10
      0.6460         4.05
      0.6470         4.04
      0.6480         4.05
      0.6490         4.02
      0.6500         4.01
      0.6510         4.02
      0.6520         4.02
      0.6530         4.08
      0.6540         4.10
      0.6550         4.14
      0.6560         4.25
      0.6570         4.25
      0.6580         4.22
      0.6590         4.33
      0.6600         4.33
      0.6610         4.28
      0.6620         4.26
      0.6630         4.28
      0.6640         4.36
      0.6650         4.44
      0.6660         4.41
      0.6670         4.44
      0.6680         4.44
      0.6690         4.45
      0.6700         4.40
      0.6710         4.41
      0.6720         4.34
      0.6730         4.28
      0.6740         4.24
      0.6750         4.14
      0.6760         4.02
      0.6770         4.06
      0.6780         4.06
      0.6790         4.05
      0.6800         4.00
      0.6810         4.08
      0.6820         4.13
      0.6830         4.22
      0.6840         4.18
      0.6850         4.20
      0.6860         4.25
      0.6870         4.27
      0.6880         4.16
      0.6890         4.20
      0.6900         4.27
      0.6910         4.21
      0.6920         4.18
      0.6930         4.21
      0.6940         4.25
      0.6950         4.30
      0.6960         4.32
      0.6970         4.24
      0.6980         4.24
      0.6990         4.09
      0.7000         4.09
      0.7010         4.05
      0.7020         4.06
      0.7030         3.96
      0.7040         3.96
      0.7050         3.90
      0.7060         3.84
      0.7070         3.80
      0.7080         3.85
      0.7090         3.76
      0.7100         3.84
      0.7110         3.97
      0.7120         4.04
      0.7130         4.10
      0.7140         4.13
      0.7150         4.18
      0.7160         4.29
      0.7170         4.34
      0.7180         4.37
      0.7190         4.57
      0.7200         4.63
      0.7210         4.65
      0.7220         4.65
      0.7230         4.69
      0.7240         4.68
      0.7250         4.72
      0.7260         4.68
      0.7270         4.73
      0.7280         4.69
      0.7290         4.77
      0.7300         4.62
      0.7310         4.48
      0.7320         4.50
      0.7330         4.42
      0.7340         4.40
      0.7350         4.38
      0.7360         4.32
      0.7370         4.37
      0.7380         4.40
      0.7390         4.37
      0.7400         4.37
      0.7410         4.44
      0.7420         4.44
      0.7430         4.46
      0.7440         4.52
      0.7450         4.59
      0.7460         4.68
      0.7470         4.68
      0.7480         5.27
      0.7490         5.29
      0.7500         5.48
      0.7510         5.56
      0.7520         5.51
      0.7530         5.00
      0.7540         4.99
      0.7550         4.93
      0.7560         4.88
      0.7570         4.81
      0.7580         4.83
      0.7590         4.84
      0.7600         4.75
      0.7610         4.68
      0.7620         4.65
      0.7630         4.61
      0.7640         4.59
      0.7650         4.48
      0.7660         4.45
      0.7670         4.44
