        Time   Palpation Force
      0.0000         1.00
      0.0010         1.00
      0.0020         1.00
      0.0030         1.00
      0.0040         1.00
      0.0050         1.20
      0.0060         1.41
      0.0070         1.60
      0.0080         1.84
      0.0090         2.03
      0.0100         2.22
      0.0110         2.39
      0.0120         2.63
      0.0130         2.78
      0.0140         2.95
      0.0150         3.15
      0.0160         3.33
      0.0170         3.54
      0.0180         3.73
      0.0190         3.93
      0.0200         3.85
      0.0210         3.90
      0.0220         3.97
      0.0230         4.02
      0.0240         3.99
      0.0250         4.00
      0.0260         4.00
      0.0270         4.01
      0.0280         3.94
      0.0290         3.97
      0.0300         3.97
      0.0310         4.03
      0.0320         3.95
      0.0330         4.03
      0.0340         4.10
      0.0350         4.05
      0.0360         4.05
      0.0370         4.05
      0.0380         4.02
      0.0390         4.00
      0.0400         3.96
      0.0410         3.96
      0.0420         3.92
      0.0430         3.86
      0.0440         3.92
      0.0450         3.89
      0.0460         3.89
      0.0470         3.92
      0.0480         3.96
      0.0490         3.93
      0.0500         3.96
      0.0510         3.90
      0.0520         3.96
      0.0530         3.90
      0.0540         3.89
      0.0550         3.97
      0.0560         3.98
      0.0570         4.01
      0.0580         4.04
      0.0590         4.12
      0.0600         4.18
      0.0610         4.18
      0.0620         4.26
      0.0630         4.34
      0.0640         4.34
      0.0650         4.36
      0.0660         4.33
      0.0670         4.28
      0.0680         4.18
      0.0690         4.18
      0.0700         4.13
      0.0710         4.17
      0.0720         4.06
      0.0730         4.09
      0.0740         4.08
      0.0750         4.04
      0.0760         4.08
      0.0770         4.00
      0.0780         4.00
      0.0790         3.89
      0.0800         3.84
      0.0810         3.85
      0.0820         3.82
      0.0830         3.86
      0.0840         3.82
      0.0850         3.81
      0.0860         3.85
      0.0870         3.89
      0.0880         3.93
      0.0890         3.92
      0.0900         3.90
      0.0910         3.92
      0.0920         3.97
      0.0930         3.98
      0.0940         3.98
      0.0950         3.92
      0.0960         3.86
      0.0970         3.85
      0.0980         3.86
      0.0990         3.93
      0.1000         3.96
      0.1010         3.93
      0.1020         3.88
      0.1030         3.73
      0.1040         3.73
      0.1050         3.74
      0.1060         3.76
      0.1070         3.70
      0.1080         3.72
      0.1090         3.74
      0.1100         3.78
      0.1110         3.74
      0.1120         3.81
      0.1130         3.85
      0.1140         3.81
      0.1150         3.90
      0.1160         3.96
      0.1170         4.06
      0.1180         4.05
      0.1190         4.05
      0.1200         3.97
      0.1210         3.98
      0.1220         3.96
      0.1230         3.96
      0.1240         3.90
      0.1250         3.89
      0.1260         3.86
      0.1270         3.88
      0.1280         3.90
      0.1290         3.93
      0.1300         3.88
      0.1310         3.85
      0.1320         3.85
      0.1330         3.85
      0.1340         3.86
      0.1350         3.81
      0.1360         3.73
      0.1370         3.69
      0.1380         3.70
      0.1390         3.66
      0.1400         3.77
      0.1410         3.76
      0.1420         3.86
      0.1430         3.94
      0.1440         3.98
      0.1450         4.01
      0.1460         4.02
      0.1470         4.02
      0.1480         4.00
      0.1490         3.98
      0.1500         4.08
      0.1510         4.13
      0.1520         4.06
      0.1530         4.04
      0.1540         3.99
      0.1550         4.03
      0.1560         4.05
      0.1570         3.99
      0.1580         3.94
      0.1590         4.01
      0.1600         3.97
      0.1610         3.95
      0.1620         3.88
      0.1630         3.82
      0.1640         3.84
      0.1650         3.84
      0.1660         3.81
      0.1670         3.86
      0.1680         3.86
      0.1690         3.88
      0.1700         3.85
      0.1710         3.81
      0.1720         3.85
      0.1730         3.86
      0.1740         3.86
      0.1750         3.89
      0.1760         3.96
      0.1770         4.04
      0.1780         4.05
      0.1790         4.06
      0.1800         4.05
      0.1810         4.12
      0.1820         4.18
      0.1830         4.16
      0.1840         4.10
      0.1850         4.04
      0.1860         4.04
      0.1870         3.98
      0.1880         4.04
      0.1890         4.00
      0.1900         3.96
      0.1910         3.96
      0.1920         4.00
      0.1930         3.92
      0.1940         3.93
      0.1950         3.92
      0.1960         3.89
      0.1970         3.86
      0.1980         3.89
      0.1990         3.89
      0.2000         4.01
      0.2010         3.96
      0.2020         3.90
      0.2030         3.98
      0.2040         4.04
      0.2050         4.04
      0.2060         4.08
      0.2070         4.09
      0.2080         4.08
      0.2090         4.05
      0.2100         4.08
      0.2110         4.10
      0.2120         4.06
      0.2130         4.09
      0.2140         4.14
      0.2150         4.13
      0.2160         4.08
      0.2170         4.05
      0.2180         4.04
      0.2190         4.01
      0.2200         3.93
      0.2210         3.92
      0.2220         3.90
      0.2230         3.84
      0.2240         3.81
      0.2250         3.82
      0.2260         3.84
      0.2270         3.90
      0.2280         3.89
      0.2290         3.94
      0.2300         3.92
      0.2310         3.97
      0.2320         4.01
      0.2330         4.04
      0.2340         4.01
      0.2350         4.02
      0.2360         4.06
      0.2370         4.08
      0.2380         4.04
      0.2390         4.05
      0.2400         4.02
      0.2410         4.04
      0.2420         4.05
      0.2430         4.00
      0.2440         4.02
      0.2450         4.05
      0.2460         4.01
      0.2470         3.94
      0.2480         3.94
      0.2490         3.86
      0.2500         3.84
      0.2510         3.78
      0.2520         3.80
      0.2530         3.76
      0.2540         3.77
      0.2550         3.76
      0.2560         3.77
      0.2570         3.76
      0.2580         3.81
      0.2590         3.82
      0.2600         3.86
      0.2610         3.92
      0.2620         3.94
      0.2630         3.98
      0.2640         4.01
      0.2650         4.02
      0.2660         4.01
      0.2670         4.02
      0.2680         4.02
      0.2690         4.13
      0.2700         4.20
      0.2710         4.24
      0.2720         4.20
      0.2730         4.17
      0.2740         4.18
      0.2750         4.20
      0.2760         4.21
      0.2770         4.24
      0.2780         4.18
      0.2790         4.16
      0.2800         4.09
      0.2810         4.04
      0.2820         4.00
      0.2830         4.02
      0.2840         3.98
      0.2850         3.93
      0.2860         3.98
      0.2870         3.96
      0.2880         3.96
      0.2890         3.97
      0.2900         4.01
      0.2910         4.05
      0.2920         4.09
      0.2930         4.08
      0.2940         4.04
      0.2950         3.98
      0.2960         4.00
      0.2970         3.96
      0.2980         4.06
      0.2990         4.06
      0.3000         4.12
      0.3010         4.12
      0.3020         4.10
      0.3030         4.04
      0.3040         4.09
      0.3050         4.09
      0.3060         4.08
      0.3070         4.09
      0.3080         4.09
      0.3090         4.02
      0.3100         4.05
      0.3110         4.10
      0.3120         3.98
      0.3130         4.01
      0.3140         4.02
      0.3150         4.08
      0.3160         4.01
      0.3170         4.13
      0.3180         4.10
      0.3190         4.10
      0.3200         4.14
      0.3210         4.14
      0.3220         4.12
      0.3230         4.18
      0.3240         4.16
      0.3250         4.21
      0.3260         3.66
      0.3270         4.20
      0.3280         4.21
      0.3290         4.21
      0.3300         4.17
      0.3310         3.98
      0.3320         3.98
      0.3330         3.97
      0.3340         3.98
      0.3350         3.87
      0.3360         4.00
      0.3370         3.89
      0.3380         3.91
      0.3390         3.91
      0.3400         3.83
      0.3410         3.78
      0.3420         3.85
      0.3430         3.87
      0.3440         3.90
      0.3450         3.89
      0.3460         3.94
      0.3470         4.01
      0.3480         3.94
      0.3490         3.99
      0.3500         3.98
      0.3510         4.03
      0.3520         4.14
      0.3530         4.20
      0.3540         4.16
      0.3550         4.22
      0.3560         4.20
      0.3570         4.21
      0.3580         4.20
      0.3590         4.18
      0.3600         4.24
      0.3610         4.25
      0.3620         4.29
      0.3630         4.26
      0.3640         4.24
      0.3650         4.21
      0.3660         4.21
      0.3670         4.16
      0.3680         4.24
      0.3690         4.20
      0.3700         4.25
      0.3710         4.28
      0.3720         4.28
      0.3730         4.28
      0.3740         4.32
      0.3750         4.40
      0.3760         4.35
      0.3770         4.41
      0.3780         4.37
      0.3790         4.43
      0.3800         4.41
      0.3810         4.53
      0.3820         4.47
      0.3830         4.47
      0.3840         4.48
      0.3850         4.49
      0.3860         4.49
      0.3870         4.45
      0.3880         4.44
      0.3890         4.41
      0.3900         4.32
      0.3910         4.28
      0.3920         4.28
      0.3930         4.29
      0.3940         4.32
      0.3950         4.21
      0.3960         4.21
      0.3970         4.14
      0.3980         4.18
      0.3990         4.14
      0.4000         4.17
      0.4010         4.16
      0.4020         4.16
      0.4030         4.21
      0.4040         4.23
      0.4050         4.25
      0.4060         4.31
      0.4070         4.33
      0.4080         4.36
      0.4090         4.32
      0.4100         4.81
      0.4110         4.85
      0.4120         4.81
      0.4130         4.80
      0.4140         4.77
      0.4150         4.82
      0.4160         4.88
      0.4170         4.44
      0.4180         4.39
      0.4190         4.43
      0.4200         4.40
      0.4210         4.33
      0.4220         4.33
      0.4230         4.28
      0.4240         4.23
      0.4250         4.20
      0.4260         4.12
      0.4270         4.08
      0.4280         4.07
      0.4290         4.19
      0.4300         4.31
      0.4310         4.31
      0.4320         4.37
      0.4330         4.28
      0.4340         4.29
      0.4350         4.33
      0.4360         4.29
      0.4370         4.27
      0.4380         4.87
      0.4390         4.92
      0.4400         4.99
      0.4410         5.05
      0.4420         5.04
      0.4430         5.08
      0.4440         5.04
      0.4450         5.24
      0.4460         5.26
      0.4470         5.25
      0.4480         5.16
      0.4490         5.15
      0.4500         5.05
      0.4510         5.05
      0.4520         5.03
      0.4530         5.11
      0.4540         5.19
      0.4550         5.17
      0.4560         5.27
      0.4570         5.25
      0.4580         5.28
      0.4590         5.28
      0.4600         5.29
      0.4610         5.31
      0.4620         5.40
      0.4630         5.45
      0.4640         5.55
      0.4650         5.53
      0.4660         5.59
      0.4670         5.69
      0.4680         5.80
      0.4690         5.76
      0.4700         5.81
      0.4710         5.80
      0.4720         5.79
      0.4730         5.76
      0.4740         5.77
      0.4750         5.71
      0.4760         5.55
      0.4770         5.53
      0.4780         5.41
      0.4790         5.32
      0.4800         4.80
      0.4810         4.79
      0.4820         4.75
      0.4830         4.75
      0.4840         4.75
      0.4850         4.61
      0.4860         4.63
      0.4870         4.60
      0.4880         4.67
      0.4890         5.21
      0.4900         5.21
      0.4910         5.33
      0.4920         5.43
      0.4930         5.44
      0.4940         5.47
      0.4950         5.53
      0.4960         5.60
      0.4970         5.67
      0.4980         5.81
      0.4990         5.95
      0.5000         6.03
      0.5010         6.05
      0.5020         6.12
      0.5030         6.13
      0.5040         6.15
      0.5050         6.15
      0.5060         6.07
      0.5070         6.08
      0.5080         6.04
      0.5090         5.99
      0.5100         6.01
      0.5110         6.06
      0.5120         5.98
      0.5130         6.04
      0.5140         6.05
      0.5150         6.10
      0.5160         6.18
      0.5170         6.25
      0.5180         6.30
      0.5190         6.26
      0.5200         6.25
      0.5210         6.25
      0.5220         6.34
      0.5230         6.46
      0.5240         6.53
      0.5250         6.60
      0.5260         6.72
      0.5270         6.76
      0.5280         6.80
      0.5290         6.88
      0.5300         6.89
      0.5310         6.84
      0.5320         6.85
      0.5330         6.86
      0.5340         6.76
      0.5350         6.66
      0.5360         6.60
      0.5370         6.46
      0.5380         6.36
      0.5390         6.40
      0.5400         6.36
      0.5410         6.38
      0.5420         6.30
      0.5430         6.29
      0.5440         6.33
      0.5450         6.37
      0.5460         6.37
      0.5470         6.38
      0.5480         6.39
      0.5490         6.39
      0.5500         6.40
      0.5510         6.52
      0.5520         6.62
      0.5530         6.70
      0.5540         6.96
      0.5550         7.06
      0.5560         7.17
      0.5570         7.22
      0.5580         7.34
      0.5590         7.33
      0.5600         7.48
      0.5610         7.52
      0.5620         7.64
      0.5630         7.61
      0.5640         7.48
      0.5650         7.49
      0.5660         7.36
      0.5670         7.29
      0.5680         7.25
      0.5690         7.33
      0.5700         7.26
      0.5710         7.20
      0.5720         7.21
      0.5730         7.18
      0.5740         7.16
      0.5750         7.22
      0.5760         7.28
      0.5770         7.32
      0.5780         7.41
      0.5790         7.49
      0.5800         7.53
      0.5810         7.54
      0.5820         7.52
      0.5830         7.62
      0.5840         7.75
      0.5850         7.83
      0.5860         8.01
      0.5870         8.14
      0.5880         8.31
      0.5890         8.30
      0.5900         8.41
      0.5910         8.43
      0.5920         8.38
      0.5930         8.34
      0.5940         8.26
      0.5950         8.19
      0.5960         8.16
      0.5970         8.22
      0.5980         8.73
      0.5990         8.76
      0.6000         8.16
      0.6010         8.17
      0.6020         8.21
      0.6030         8.14
      0.6040         8.20
      0.6050         8.22
      0.6060         8.22
      0.6070         8.22
      0.6080         8.37
      0.6090         8.41
      0.6100         8.44
      0.6110         8.57
      0.6120         8.70
      0.6130         8.82
      0.6140         8.92
      0.6150         8.94
      0.6160         8.98
      0.6170         9.01
      0.6180         8.98
      0.6190         9.01
      0.6200         9.09
      0.6210         9.09
      0.6220         9.05
      0.6230         9.13
      0.6240         9.16
      0.6250         9.09
      0.6260         9.04
      0.6270         9.13
      0.6280         8.94
      0.6290         8.92
      0.6300         9.45
      0.6310         9.35
      0.6320         9.35
      0.6330         9.35
      0.6340         9.40
      0.6350         9.57
      0.6360         9.59
      0.6370         9.64
      0.6380         9.71
      0.6390         9.80
      0.6400         9.84
      0.6410         9.38
      0.6420         9.48
      0.6430         9.51
      0.6440         9.57
      0.6450         9.58
      0.6460         9.70
      0.6470         9.63
      0.6480         9.67
      0.6490         9.73
      0.6500         9.70
      0.6510         9.78
      0.6520         9.77
      0.6530         9.74
      0.6540         9.67
      0.6550         9.61
      0.6560         9.57
      0.6570         9.45
      0.6580         9.39
      0.6590         9.38
      0.6600         9.37
      0.6610         9.33
      0.6620         9.26
      0.6630         9.27
      0.6640         9.22
      0.6650         9.22
      0.6660         9.23
      0.6670         9.33
      0.6680         9.38
      0.6690         9.50
      0.6700         9.61
      0.6710         9.66
      0.6720         9.82
      0.6730         9.91
      0.6740        10.01
      0.6750        10.01
      0.6760        10.09
      0.6770        10.17
      0.6780        10.21
      0.6790        10.26
      0.6800        10.22
      0.6810        10.18
      0.6820        10.22
      0.6830        10.20
      0.6840        10.21
      0.6850        10.26
      0.6860        10.25
      0.6870        10.23
      0.6880        10.23
      0.6890        10.25
      0.6900        10.25
      0.6910        10.19
      0.6920        10.11
      0.6930        10.13
      0.6940        10.14
      0.6950        10.25
      0.6960        10.34
      0.6970        10.46
      0.6980        10.47
      0.6990        10.45
      0.7000        10.49
      0.7010        10.58
      0.7020        10.61
      0.7030        10.62
      0.7040        10.70
      0.7050        10.71
      0.7060        10.74
      0.7070        10.73
      0.7080        10.67
      0.7090        10.58
      0.7100        10.62
      0.7110        10.58
      0.7120        10.62
      0.7130        10.58
      0.7140        10.55
      0.7150        10.39
      0.7160        10.26
      0.7170        10.12
      0.7180        10.04
      0.7190        10.06
      0.7200        10.08
      0.7210        10.06
      0.7220        10.05
      0.7230        10.08
      0.7240        10.09
      0.7250        10.21
      0.7260        10.24
      0.7270        10.29
      0.7280        10.42
      0.7290        10.53
      0.7300        10.53
      0.7310        10.53
      0.7320        10.53
      0.7330        11.12
      0.7340        10.65
      0.7350        10.79
      0.7360        10.86
      0.7370        11.45
      0.7380        11.54
      0.7390        11.56
      0.7400        11.55
      0.7410        11.56
      0.7420        11.57
      0.7430        11.68
      0.7440        11.63
      0.7450        11.67
      0.7460        11.61
      0.7470        11.60
      0.7480        11.57
      0.7490        11.40
      0.7500        11.35
      0.7510        11.53
      0.7520        11.57
      0.7530        11.58
      0.7540        11.71
      0.7550        11.72
      0.7560        11.78
      0.7570        11.78
      0.7580        11.76
      0.7590        11.80
      0.7600        11.80
      0.7610        11.82
      0.7620        11.97
      0.7630        12.00
      0.7640        12.10
      0.7650        12.12
      0.7660        12.14
      0.7670        12.25
