        Time   Palpation Force
      0.0000         1.00
      0.0010         1.00
      0.0020         1.00
      0.0030         1.00
      0.0040         1.16
      0.0050         1.28
      0.0060         1.53
      0.0070         1.73
      0.0080         1.93
      0.0090         2.13
      0.0100         2.32
      0.0110         2.57
      0.0120         2.84
      0.0130         3.05
      0.0140         3.23
      0.0150         3.45
      0.0160         3.66
      0.0170         3.92
      0.0180         4.13
      0.0190         4.34
      0.0200         4.33
      0.0210         4.39
      0.0220         4.47
      0.0230         4.42
      0.0240         4.33
      0.0250         4.46
      0.0260         4.42
      0.0270         4.43
      0.0280         4.46
      0.0290         4.55
      0.0300         4.55
      0.0310         4.54
      0.0320         4.54
      0.0330         4.55
      0.0340         4.55
      0.0350         4.58
      0.0360         4.58
      0.0370         4.61
      0.0380         4.59
      0.0390         4.61
      0.0400         4.63
      0.0410         4.62
      0.0420         4.62
      0.0430         4.63
      0.0440         4.61
      0.0450         4.58
      0.0460         4.58
      0.0470         4.58
      0.0480         4.57
      0.0490         4.49
      0.0500         4.51
      0.0510         4.47
      0.0520         4.42
      0.0530         4.43
      0.0540         4.47
      0.0550         4.45
      0.0560         4.46
      0.0570         4.42
      0.0580         4.43
      0.0590         4.42
      0.0600         4.39
      0.0610         4.36
      0.0620         4.31
      0.0630         4.27
      0.0640         4.31
      0.0650         4.32
      0.0660         4.35
      0.0670         4.42
      0.0680         4.36
      0.0690         4.31
      0.0700         4.30
      0.0710         4.27
      0.0720         4.30
      0.0730         4.22
      0.0740         4.23
      0.0750         4.31
      0.0760         4.24
      0.0770         4.22
      0.0780         4.26
      0.0790         4.31
      0.0800         4.34
      0.0810         4.35
      0.0820         4.31
      0.0830         4.35
      0.0840         4.34
      0.0850         4.28
      0.0860         4.27
      0.0870         4.19
      0.0880         4.20
      0.0890         4.23
      0.0900         4.24
      0.0910         4.28
      0.0920         4.24
      0.0930         4.32
      0.0940         4.34
      0.0950         4.22
      0.0960         4.27
      0.0970         4.26
      0.0980         4.19
      0.0990         4.14
      0.1000         4.10
      0.1010         4.14
      0.1020         4.18
      0.1030         4.19
      0.1040         4.22
      0.1050         4.20
      0.1060         4.19
      0.1070         4.24
      0.1080         4.35
      0.1090         4.39
      0.1100         4.42
      0.1110         4.42
      0.1120         4.48
      0.1130         4.47
      0.1140         4.44
      0.1150         4.47
      0.1160         4.48
      0.1170         4.51
      0.1180         4.50
      0.1190         4.47
      0.1200         4.45
      0.1210         4.37
      0.1220         4.39
      0.1230         4.39
      0.1240         4.41
      0.1250         4.49
      0.1260         4.53
      0.1270         4.49
      0.1280         4.43
      0.1290         4.47
      0.1300         4.43
      0.1310         4.41
      0.1320         4.38
      0.1330         4.38
      0.1340         4.34
      0.1350         4.35
      0.1360         4.30
      0.1370         4.24
      0.1380         4.30
      0.1390         4.28
      0.1400         4.30
      0.1410         4.38
      0.1420         4.42
      0.1430         4.46
      0.1440         4.39
      0.1450         4.34
      0.1460         4.28
      0.1470         4.22
      0.1480         4.21
      0.1490         4.12
      0.1500         4.15
      0.1510         4.16
      0.1520         4.17
      0.1530         4.17
      0.1540         4.24
      0.1550         4.27
      0.1560         4.36
      0.1570         4.39
      0.1580         4.34
      0.1590         4.38
      0.1600         4.34
      0.1610         4.28
      0.1620         4.28
      0.1630         4.29
      0.1640         4.29
      0.1650         4.38
      0.1660         4.43
      0.1670         4.54
      0.1680         4.56
      0.1690         4.64
      0.1700         4.68
      0.1710         4.68
      0.1720         4.71
      0.1730         4.70
      0.1740         4.66
      0.1750         4.62
      0.1760         4.56
      0.1770         4.59
      0.1780         4.68
      0.1790         4.66
      0.1800         4.67
      0.1810         4.70
      0.1820         4.66
      0.1830         4.54
      0.1840         4.52
      0.1850         4.46
      0.1860         4.43
      0.1870         4.43
      0.1880         4.40
      0.1890         4.35
      0.1900         4.30
      0.1910         4.28
      0.1920         4.27
      0.1930         4.31
      0.1940         4.36
      0.1950         4.43
      0.1960         4.46
      0.1970         4.42
      0.1980         4.42
      0.1990         4.46
      0.2000         4.51
      0.2010         4.46
      0.2020         4.51
      0.2030         4.54
      0.2040         4.54
      0.2050         4.52
      0.2060         4.47
      0.2070         4.41
      0.2080         4.39
      0.2090         4.41
      0.2100         4.39
      0.2110         4.40
      0.2120         4.39
      0.2130         4.37
      0.2140         4.36
      0.2150         4.29
      0.2160         4.29
      0.2170         4.27
      0.2180         4.27
      0.2190         4.21
      0.2200         4.21
      0.2210         4.21
      0.2220         4.16
      0.2230         4.19
      0.2240         4.25
      0.2250         4.29
      0.2260         4.43
      0.2270         4.43
      0.2280         4.48
      0.2290         4.43
      0.2300         4.48
      0.2310         4.55
      0.2320         4.51
      0.2330         4.44
      0.2340         4.37
      0.2350         4.45
      0.2360         4.49
      0.2370         4.52
      0.2380         4.48
      0.2390         4.57
      0.2400         4.51
      0.2410         4.52
      0.2420         4.55
      0.2430         4.56
      0.2440         4.49
      0.2450         4.44
      0.2460         4.33
      0.2470         4.35
      0.2480         4.36
      0.2490         4.43
      0.2500         4.40
      0.2510         4.32
      0.2520         4.28
      0.2530         4.40
      0.2540         4.51
      0.2550         4.45
      0.2560         4.40
      0.2570         4.48
      0.2580         4.49
      0.2590         4.45
      0.2600         4.48
      0.2610         4.51
      0.2620         4.40
      0.2630         4.32
      0.2640         4.36
      0.2650         4.35
      0.2660         4.41
      0.2670         4.48
      0.2680         4.41
      0.2690         4.39
      0.2700         4.36
      0.2710         4.48
      0.2720         4.57
      0.2730         4.49
      0.2740         4.37
      0.2750         4.35
      0.2760         4.35
      0.2770         4.29
      0.2780         4.27
      0.2790         4.31
      0.2800         4.33
      0.2810         4.37
      0.2820         4.49
      0.2830         4.65
      0.2840         4.71
      0.2850         4.76
      0.2860         4.71
      0.2870         4.67
      0.2880         4.73
      0.2890         4.72
      0.2900         4.73
      0.2910         4.63
      0.2920         4.55
      0.2930         4.57
      0.2940         4.59
      0.2950         4.53
      0.2960         4.57
      0.2970         4.55
      0.2980         4.52
      0.2990         4.51
      0.3000         4.49
      0.3010         4.40
      0.3020         4.37
      0.3030         4.28
      0.3040         4.27
      0.3050         4.31
      0.3060         4.31
      0.3070         4.32
      0.3080         4.29
      0.3090         4.32
      0.3100         4.40
      0.3110         4.43
      0.3120         4.55
      0.3130         4.63
      0.3140         4.68
      0.3150         4.83
      0.3160         4.79
      0.3170         4.84
      0.3180         4.92
      0.3190         4.92
      0.3200         4.94
      0.3210         4.92
      0.3220         4.88
      0.3230         4.95
      0.3240         4.88
      0.3250         4.85
      0.3260         4.87
      0.3270         4.85
      0.3280         4.85
      0.3290         4.79
      0.3300         4.64
      0.3310         4.52
      0.3320         4.47
      0.3330         4.39
      0.3340         4.43
      0.3350         4.35
      0.3360         4.43
      0.3370         4.45
      0.3380         4.43
      0.3390         4.41
      0.3400         4.43
      0.3410         4.50
      0.3420         4.55
      0.3430         4.48
      0.3440         4.55
      0.3450         4.56
      0.3460         4.58
      0.3470         4.51
      0.3480         4.46
      0.3490         4.60
      0.3500         4.67
      0.3510         4.78
      0.3520         4.70
      0.3530         4.71
      0.3540         4.64
      0.3550         4.66
      0.3560         4.59
      0.3570         4.59
      0.3580         4.55
      0.3590         4.59
      0.3600         4.60
      0.3610         4.59
      0.3620         4.59
      0.3630         4.63
      0.3640         4.56
      0.3650         4.51
      0.3660         4.49
      0.3670         4.55
      0.3680         4.58
      0.3690         4.51
      0.3700         4.52
      0.3710         4.58
      0.3720         4.67
      0.3730         4.64
      0.3740         4.70
      0.3750         4.75
      0.3760         4.68
      0.3770         4.67
      0.3780         4.69
      0.3790         4.64
      0.3800         4.67
      0.3810         4.63
      0.3820         4.55
      0.3830         4.44
      0.3840         4.43
      0.3850         4.45
      0.3860         4.41
      0.3870         4.35
      0.3880         4.32
      0.3890         4.32
      0.3900         4.31
      0.3910         4.28
      0.3920         4.24
      0.3930         4.25
      0.3940         4.15
      0.3950         4.03
      0.3960         4.05
      0.3970         4.04
      0.3980         4.08
      0.3990         4.12
      0.4000         4.12
      0.4010         4.25
      0.4020         4.37
      0.4030         4.41
      0.4040         4.51
      0.4050         4.49
      0.4060         4.57
      0.4070         4.63
      0.4080         4.64
      0.4090         4.71
      0.4100         4.76
      0.4110         4.73
      0.4120         4.67
      0.4130         4.64
      0.4140         4.73
      0.4150         4.75
      0.4160         4.76
      0.4170         4.83
      0.4180         4.80
      0.4190         4.73
      0.4200         4.73
      0.4210         4.68
      0.4220         4.65
      0.4230         4.83
      0.4240         4.85
      0.4250         4.96
      0.4260         4.98
      0.4270         5.08
      0.4280         5.20
      0.4290         5.22
      0.4300         5.20
      0.4310         5.34
      0.4320         6.04
      0.4330         6.14
      0.4340         6.20
      0.4350         6.26
      0.4360         6.31
      0.4370         6.27
      0.4380         6.34
      0.4390         6.44
      0.4400         6.51
      0.4410         6.42
      0.4420         6.38
      0.4430         6.20
      0.4440         6.06
      0.4450         5.48
      0.4460         5.52
      0.4470         5.42
      0.4480         5.36
      0.4490         5.32
      0.4500         5.30
      0.4510         5.27
      0.4520         5.23
      0.4530         5.28
      0.4540         5.22
      0.4550         5.24
      0.4560         5.90
      0.4570         5.95
      0.4580         5.92
      0.4590         5.95
      0.4600         6.00
      0.4610         6.16
      0.4620         6.23
      0.4630         6.26
      0.4640         6.43
      0.4650         6.48
      0.4660         6.44
      0.4670         6.39
      0.4680         6.47
      0.4690         6.59
      0.4700         6.73
      0.4710         6.63
      0.4720         6.61
      0.4730         6.52
      0.4740         6.53
      0.4750         6.51
      0.4760         6.40
      0.4770         6.36
      0.4780         6.41
      0.4790         6.42
      0.4800         6.37
      0.4810         6.40
      0.4820         6.44
      0.4830         6.56
      0.4840         6.51
      0.4850         6.47
      0.4860         6.59
      0.4870         6.74
      0.4880         6.83
      0.4890         6.87
      0.4900         6.87
      0.4910         6.96
      0.4920         6.97
      0.4930         7.08
      0.4940         7.19
      0.4950         7.15
      0.4960         7.16
      0.4970         7.19
      0.4980         7.18
      0.4990         7.24
      0.5000         7.31
      0.5010         7.31
      0.5020         7.28
      0.5030         7.23
      0.5040         7.20
      0.5050         7.29
      0.5060         7.20
      0.5070         7.23
      0.5080         7.08
      0.5090         7.04
      0.5100         7.04
      0.5110         7.07
      0.5120         7.16
      0.5130         7.22
      0.5140         7.28
      0.5150         7.40
      0.5160         7.54
      0.5170         7.60
      0.5180         7.73
      0.5190         7.75
      0.5200         7.84
      0.5210         7.88
      0.5220         7.91
      0.5230         7.89
      0.5240         8.05
      0.5250         8.08
      0.5260         8.21
      0.5270         8.19
      0.5280         8.28
      0.5290         8.27
      0.5300         8.21
      0.5310         8.19
      0.5320         8.07
      0.5330         7.97
      0.5340         7.91
      0.5350         7.95
      0.5360         7.83
      0.5370         7.84
      0.5380         7.75
      0.5390         7.68
      0.5400         7.60
      0.5410         7.63
      0.5420         7.75
      0.5430         7.84
      0.5440         7.83
      0.5450         7.91
      0.5460         7.96
      0.5470         8.09
      0.5480         8.21
      0.5490         8.40
      0.5500         8.55
      0.5510         8.59
      0.5520         8.71
      0.5530         8.80
      0.5540         8.84
      0.5550         8.91
      0.5560         9.00
      0.5570         9.00
      0.5580         9.08
      0.5590         9.04
      0.5600         8.99
      0.5610         9.01
      0.5620         8.96
      0.5630         8.97
      0.5640         8.88
      0.5650         9.31
      0.5660         9.28
      0.5670         9.27
      0.5680         9.23
      0.5690         9.12
      0.5700         9.04
      0.5710         9.13
      0.5720         9.17
      0.5730         9.28
      0.5740         8.81
      0.5750         8.74
      0.5760         8.82
      0.5770         8.89
      0.5780         9.06
      0.5790         9.22
      0.5800         9.34
      0.5810         9.40
      0.5820         9.40
      0.5830         9.42
      0.5840         9.56
      0.5850         9.61
      0.5860         9.66
      0.5870         9.57
      0.5880         9.52
      0.5890         9.41
      0.5900         9.37
      0.5910         9.33
      0.5920         9.32
      0.5930         9.20
      0.5940         9.20
      0.5950         9.28
      0.5960         9.22
      0.5970         9.20
      0.5980         9.05
      0.5990         9.14
      0.6000         9.16
      0.6010         9.10
      0.6020         9.17
      0.6030         9.16
      0.6040         9.14
      0.6050         9.25
      0.6060         9.32
      0.6070         9.50
      0.6080         9.57
      0.6090         9.76
      0.6100         9.90
      0.6110         9.93
      0.6120         9.81
      0.6130         9.81
      0.6140         9.77
      0.6150         9.68
      0.6160         9.57
      0.6170         9.52
      0.6180         9.52
      0.6190         9.42
      0.6200         9.44
      0.6210         9.57
      0.6220         9.61
      0.6230        10.24
      0.6240        10.24
      0.6250        10.25
      0.6260        10.24
      0.6270        10.28
      0.6280        10.29
      0.6290         9.77
      0.6300         9.74
      0.6310         9.82
      0.6320        10.02
      0.6330        10.17
      0.6340        10.36
      0.6350        10.49
      0.6360        10.69
      0.6370        10.90
      0.6380        11.01
      0.6390        11.03
      0.6400        10.99
      0.6410        10.90
      0.6420        10.86
      0.6430        10.82
      0.6440        10.81
      0.6450        10.77
      0.6460        10.82
      0.6470        10.75
      0.6480        10.74
      0.6490        11.21
      0.6500        10.60
      0.6510        10.54
      0.6520        10.97
      0.6530        10.83
      0.6540        10.17
      0.6550        10.69
      0.6560        10.64
      0.6570        10.67
      0.6580        10.13
      0.6590        10.16
      0.6600        10.32
      0.6610        10.30
      0.6620        10.37
      0.6630        10.33
      0.6640        10.43
      0.6650        10.49
      0.6660        10.54
      0.6670        10.65
      0.6680        10.66
      0.6690        10.73
      0.6700        11.01
      0.6710        11.07
      0.6720        11.03
      0.6730        11.14
      0.6740        11.21
      0.6750        11.17
      0.6760        11.19
      0.6770        10.99
      0.6780        11.05
      0.6790        10.94
      0.6800        11.34
      0.6810        11.40
      0.6820        11.47
      0.6830        11.52
      0.6840        11.60
      0.6850        11.56
      0.6860        11.59
      0.6870        11.56
      0.6880        11.64
      0.6890        11.59
      0.6900        11.47
      0.6910        11.43
      0.6920        11.52
      0.6930        11.58
      0.6940        11.70
      0.6950        11.86
      0.6960        11.85
      0.6970        11.98
      0.6980        11.94
      0.6990        12.10
      0.7000        12.22
      0.7010        12.28
      0.7020        12.20
      0.7030        12.25
      0.7040        12.34
      0.7050        12.37
      0.7060        12.37
      0.7070        12.25
      0.7080        12.17
      0.7090        12.11
      0.7100        12.07
      0.7110        12.18
      0.7120        12.14
      0.7130        12.06
      0.7140        11.97
      0.7150        11.95
      0.7160        11.96
      0.7170        12.04
      0.7180        12.05
      0.7190        12.05
      0.7200        11.97
      0.7210        11.96
      0.7220        11.96
      0.7230        12.04
      0.7240        11.50
      0.7250        11.65
      0.7260        11.70
      0.7270        11.85
      0.7280        11.90
      0.7290        11.94
      0.7300        12.61
      0.7310        12.14
      0.7320        12.15
      0.7330        12.73
      0.7340        12.72
      0.7350        12.62
      0.7360        12.64
      0.7370        12.56
      0.7380        12.65
      0.7390        12.61
      0.7400        12.63
      0.7410        12.71
      0.7420        12.71
      0.7430        12.60
      0.7440        12.59
      0.7450        12.59
      0.7460        12.56
      0.7470        12.43
      0.7480        12.36
      0.7490        12.35
      0.7500        12.31
      0.7510        12.24
      0.7520        12.32
      0.7530        12.29
      0.7540        12.41
      0.7550        12.52
      0.7560        12.61
      0.7570        12.65
      0.7580        12.57
      0.7590        12.67
      0.7600        12.72
      0.7610        12.77
      0.7620        12.88
      0.7630        12.93
      0.7640        12.99
      0.7650        12.86
      0.7660        12.93
      0.7670        12.95
