        Time   Palpation Force
      0.0000         1.00
      0.0010         1.00
      0.0020         1.00
      0.0030         1.00
      0.0040         1.06
      0.0050         1.26
      0.0060         1.44
      0.0070         1.75
      0.0080         1.94
      0.0090         2.18
      0.0100         2.48
      0.0110         2.76
      0.0120         2.98
      0.0130         3.21
      0.0140         3.45
      0.0150         3.68
      0.0160         3.90
      0.0170         4.11
      0.0180         4.29
      0.0190         4.55
      0.0200         4.53
      0.0210         4.53
      0.0220         4.55
      0.0230         4.55
      0.0240         4.53
      0.0250         4.57
      0.0260         4.57
      0.0270         4.51
      0.0280         4.56
      0.0290         4.51
      0.0300         4.45
      0.0310         4.39
      0.0320         4.37
      0.0330         4.33
      0.0340         4.35
      0.0350         4.37
      0.0360         4.32
      0.0370         4.32
      0.0380         4.36
      0.0390         4.35
      0.0400         4.35
      0.0410         4.33
      0.0420         4.43
      0.0430         4.44
      0.0440         4.44
      0.0450         4.47
      0.0460         4.55
      0.0470         4.57
      0.0480         4.57
      0.0490         4.59
      0.0500         4.59
      0.0510         4.61
      0.0520         4.59
      0.0530         4.61
      0.0540         4.53
      0.0550         4.53
      0.0560         4.63
      0.0570         4.60
      0.0580         4.63
      0.0590         4.59
      0.0600         4.55
      0.0610         4.51
      0.0620         4.39
      0.0630         4.41
      0.0640         4.44
      0.0650         4.36
      0.0660         4.35
      0.0670         4.32
      0.0680         4.40
      0.0690         4.47
      0.0700         4.44
      0.0710         4.41
      0.0720         4.52
      0.0730         4.58
      0.0740         4.59
      0.0750         4.59
      0.0760         4.56
      0.0770         4.62
      0.0780         4.56
      0.0790         4.59
      0.0800         4.60
      0.0810         4.57
      0.0820         4.57
      0.0830         4.48
      0.0840         4.44
      0.0850         4.44
      0.0860         4.43
      0.0870         4.35
      0.0880         4.24
      0.0890         4.15
      0.0900         4.13
      0.0910         4.15
      0.0920         4.11
      0.0930         4.03
      0.0940         4.04
      0.0950         3.97
      0.0960         4.01
      0.0970         4.01
      0.0980         4.07
      0.0990         4.09
      0.1000         4.18
      0.1010         4.32
      0.1020         4.43
      0.1030         4.43
      0.1040         4.54
      0.1050         4.62
      0.1060         4.59
      0.1070         4.67
      0.1080         4.68
      0.1090         4.68
      0.1100         4.63
      0.1110         4.58
      0.1120         4.52
      0.1130         4.54
      0.1140         4.52
      0.1150         4.58
      0.1160         4.54
      0.1170         4.50
      0.1180         4.46
      0.1190         4.43
      0.1200         4.43
      0.1210         4.32
      0.1220         4.26
      0.1230         4.31
      0.1240         4.27
      0.1250         4.16
      0.1260         4.22
      0.1270         4.22
      0.1280         4.18
      0.1290         4.24
      0.1300         4.35
      0.1310         4.44
      0.1320         4.46
      0.1330         4.50
      0.1340         4.55
      0.1350         4.60
      0.1360         4.63
      0.1370         4.59
      0.1380         4.64
      0.1390         4.66
      0.1400         4.55
      0.1410         4.59
      0.1420         4.58
      0.1430         4.54
      0.1440         4.54
      0.1450         4.58
      0.1460         4.54
      0.1470         4.52
      0.1480         4.51
      0.1490         4.48
      0.1500         4.46
      0.1510         4.36
      0.1520         4.31
      0.1530         4.24
      0.1540         4.24
      0.1550         4.18
      0.1560         4.19
      0.1570         4.28
      0.1580         4.22
      0.1590         4.18
      0.1600         4.27
      0.1610         4.19
      0.1620         4.24
      0.1630         4.32
      0.1640         4.34
      0.1650         4.35
      0.1660         4.38
      0.1670         4.39
      0.1680         4.50
      0.1690         4.49
      0.1700         4.54
      0.1710         4.58
      0.1720         4.57
      0.1730         4.65
      0.1740         4.62
      0.1750         4.51
      0.1760         4.42
      0.1770         4.43
      0.1780         4.50
      0.1790         4.50
      0.1800         4.46
      0.1810         4.54
      0.1820         4.55
      0.1830         4.54
      0.1840         4.42
      0.1850         4.50
      0.1860         4.54
      0.1870         4.51
      0.1880         4.47
      0.1890         4.52
      0.1900         4.47
      0.1910         4.55
      0.1920         4.66
      0.1930         4.63
      0.1940         4.63
      0.1950         4.77
      0.1960         4.81
      0.1970         4.74
      0.1980         4.63
      0.1990         4.63
      0.2000         4.59
      0.2010         4.51
      0.2020         4.43
      0.2030         4.38
      0.2040         4.44
      0.2050         4.38
      0.2060         4.30
      0.2070         4.32
      0.2080         4.32
      0.2090         4.30
      0.2100         4.32
      0.2110         4.24
      0.2120         4.27
      0.2130         4.26
      0.2140         4.19
      0.2150         4.20
      0.2160         4.26
      0.2170         4.30
      0.2180         4.28
      0.2190         4.24
      0.2200         4.32
      0.2210         4.47
      0.2220         4.47
      0.2230         4.48
      0.2240         4.50
      0.2250         4.47
      0.2260         4.48
      0.2270         4.46
      0.2280         4.43
      0.2290         4.42
      0.2300         4.38
      0.2310         4.32
      0.2320         4.24
      0.2330         4.24
      0.2340         4.31
      0.2350         4.30
      0.2360         4.22
      0.2370         4.23
      0.2380         4.31
      0.2390         4.34
      0.2400         4.35
      0.2410         4.24
      0.2420         4.31
      0.2430         4.30
      0.2440         4.40
      0.2450         4.47
      0.2460         4.56
      0.2470         4.58
      0.2480         4.66
      0.2490         4.76
      0.2500         4.75
      0.2510         4.90
      0.2520         4.98
      0.2530         4.99
      0.2540         4.99
      0.2550         4.99
      0.2560         5.06
      0.2570         5.00
      0.2580         4.95
      0.2590         4.91
      0.2600         4.84
      0.2610         4.91
      0.2620         4.87
      0.2630         4.94
      0.2640         4.84
      0.2650         4.82
      0.2660         4.75
      0.2670         4.76
      0.2680         4.70
      0.2690         4.66
      0.2700         4.63
      0.2710         4.58
      0.2720         4.59
      0.2730         4.55
      0.2740         4.58
      0.2750         4.52
      0.2760         4.58
      0.2770         4.62
      0.2780         4.70
      0.2790         4.82
      0.2800         4.86
      0.2810         4.86
      0.2820         4.90
      0.2830         4.87
      0.2840         4.88
      0.2850         4.80
      0.2860         4.79
      0.2870         4.71
      0.2880         4.69
      0.2890         4.64
      0.2900         4.63
      0.2910         4.58
      0.2920         4.47
      0.2930         4.48
      0.2940         4.43
      0.2950         4.51
      0.2960         4.47
      0.2970         4.44
      0.2980         4.44
      0.2990         4.27
      0.3000         4.29
      0.3010         4.33
      0.3020         4.27
      0.3030         4.29
      0.3040         4.25
      0.3050         4.34
      0.3060         4.35
      0.3070         4.39
      0.3080         4.39
      0.3090         4.44
      0.3100         4.48
      0.3110         4.46
      0.3120         4.54
      0.3130         4.51
      0.3140         4.50
      0.3150         4.42
      0.3160         4.35
      0.3170         4.42
      0.3180         4.38
      0.3190         4.48
      0.3200         4.50
      0.3210         4.47
      0.3220         4.54
      0.3230         4.50
      0.3240         4.50
      0.3250         4.43
      0.3260         4.38
      0.3270         4.42
      0.3280         4.51
      0.3290         4.50
      0.3300         4.52
      0.3310         4.54
      0.3320         4.53
      0.3330         4.58
      0.3340         4.63
      0.3350         4.71
      0.3360         4.75
      0.3370         4.70
      0.3380         4.74
      0.3390         4.80
      0.3400         4.75
      0.3410         4.66
      0.3420         4.63
      0.3430         4.56
      0.3440         4.54
      0.3450         4.56
      0.3460         4.60
      0.3470         4.52
      0.3480         4.41
      0.3490         4.32
      0.3500         4.27
      0.3510         4.33
      0.3520         4.31
      0.3530         4.31
      0.3540         4.35
      0.3550         4.32
      0.3560         4.35
      0.3570         4.35
      0.3580         4.35
      0.3590         4.31
      0.3600         4.36
      0.3610         4.40
      0.3620         4.45
      0.3630         4.57
      0.3640         4.60
      0.3650         4.62
      0.3660         4.62
      0.3670         4.70
      0.3680         4.68
      0.3690         4.70
      0.3700         4.79
      0.3710         4.74
      0.3720         4.68
      0.3730         4.68
      0.3740         4.56
      0.3750         4.51
      0.3760         4.46
      0.3770         4.40
      0.3780         4.36
      0.3790         4.35
      0.3800         4.32
      0.3810         4.21
      0.3820         4.19
      0.3830         4.13
      0.3840         4.11
      0.3850         4.16
      0.3860         4.12
      0.3870         4.09
      0.3880         4.12
      0.3890         4.12
      0.3900         4.12
      0.3910         4.09
      0.3920         4.19
      0.3930         4.19
      0.3940         4.27
      0.3950         4.40
      0.3960         4.43
      0.3970         4.47
      0.3980         4.55
      0.3990         4.64
      0.4000         4.59
      0.4010         4.69
      0.4020         4.68
      0.4030         4.65
      0.4040         4.61
      0.4050         4.57
      0.4060         4.69
      0.4070         4.73
      0.4080         4.71
      0.4090         4.72
      0.4100         4.75
      0.4110         4.85
      0.4120         4.87
      0.4130         4.92
      0.4140         4.89
      0.4150         4.77
      0.4160         4.77
      0.4170         4.80
      0.4180         4.81
      0.4190         4.80
      0.4200         4.88
      0.4210         4.85
      0.4220         4.95
      0.4230         4.95
      0.4240         5.03
      0.4250         4.97
      0.4260         5.41
      0.4270         5.45
      0.4280         5.49
      0.4290         5.49
      0.4300         4.93
      0.4310         4.91
      0.4320         4.85
      0.4330         4.84
      0.4340         4.87
      0.4350         4.84
      0.4360         4.85
      0.4370         4.83
      0.4380         4.77
      0.4390         4.73
      0.4400         4.73
      0.4410         4.80
      0.4420         4.76
      0.4430         4.77
      0.4440         5.26
      0.4450         5.44
      0.4460         5.48
      0.4470         5.52
      0.4480         5.56
      0.4490         5.61
      0.4500         5.70
      0.4510         5.74
      0.4520         5.76
      0.4530         5.72
      0.4540         5.84
      0.4550         5.94
      0.4560         5.97
      0.4570         5.98
      0.4580         6.00
      0.4590         6.06
      0.4600         6.05
      0.4610         6.02
      0.4620         5.93
      0.4630         5.92
      0.4640         5.89
      0.4650         5.80
      0.4660         5.20
      0.4670         5.17
      0.4680         5.09
      0.4690         5.08
      0.4700         5.02
      0.4710         5.01
      0.4720         5.02
      0.4730         4.98
      0.4740         5.04
      0.4750         5.05
      0.4760         5.08
      0.4770         5.16
      0.4780         5.65
      0.4790         5.65
      0.4800         5.74
      0.4810         5.80
      0.4820         5.85
      0.4830         5.92
      0.4840         6.05
      0.4850         6.10
      0.4860         6.22
      0.4870         6.25
      0.4880         6.36
      0.4890         6.49
      0.4900         6.41
      0.4910         6.46
      0.4920         6.46
      0.4930         6.52
      0.4940         6.48
      0.4950         6.49
      0.4960         6.42
      0.4970         6.37
      0.4980         6.41
      0.4990         6.42
      0.5000         6.37
      0.5010         6.38
      0.5020         6.40
      0.5030         6.34
      0.5040         6.29
      0.5050         6.33
      0.5060         6.37
      0.5070         6.46
      0.5080         6.58
      0.5090         6.67
      0.5100         6.85
      0.5110         6.82
      0.5120         6.89
      0.5130         6.93
      0.5140         6.94
      0.5150         6.94
      0.5160         7.06
      0.5170         7.10
      0.5180         7.05
      0.5190         6.98
      0.5200         6.92
      0.5210         6.89
      0.5220         6.89
      0.5230         7.00
      0.5240         7.04
      0.5250         7.00
      0.5260         6.97
      0.5270         6.81
      0.5280         6.70
      0.5290         6.61
      0.5300         6.57
      0.5310         6.62
      0.5320         6.70
      0.5330         6.77
      0.5340         6.85
      0.5350         6.83
      0.5360         6.83
      0.5370         6.90
      0.5380         6.94
      0.5390         7.03
      0.5400         7.15
      0.5410         7.14
      0.5420         7.11
      0.5430         7.14
      0.5440         7.23
      0.5450         7.29
      0.5460         7.37
      0.5470         7.43
      0.5480         7.49
      0.5490         7.49
      0.5500         7.47
      0.5510         7.39
      0.5520         7.30
      0.5530         7.23
      0.5540         7.15
      0.5550         7.17
      0.5560         7.09
      0.5570         7.06
      0.5580         7.14
      0.5590         7.14
      0.5600         7.10
      0.5610         7.29
      0.5620         7.41
      0.5630         7.45
      0.5640         7.43
      0.5650         7.50
      0.5660         7.53
      0.5670         7.66
      0.5680         7.78
      0.5690         7.90
      0.5700         7.96
      0.5710         8.18
      0.5720         8.19
      0.5730         8.24
      0.5740         8.38
      0.5750         8.47
      0.5760         8.54
      0.5770         8.55
      0.5780         8.48
      0.5790         8.46
      0.5800         8.54
      0.5810         8.35
      0.5820         8.25
      0.5830         8.20
      0.5840         8.14
      0.5850         8.10
      0.5860         8.11
      0.5870         8.08
      0.5880         8.06
      0.5890         8.00
      0.5900         8.01
      0.5910         7.90
      0.5920         7.95
      0.5930         8.02
      0.5940         8.04
      0.5950         8.04
      0.5960         8.08
      0.5970         8.23
      0.5980         8.46
      0.5990         8.50
      0.6000         8.48
      0.6010         8.60
      0.6020         8.58
      0.6030         8.63
      0.6040         8.74
      0.6050         8.64
      0.6060         8.59
      0.6070         8.64
      0.6080         8.55
      0.6090         8.59
      0.6100         8.52
      0.6110         8.56
      0.6120         9.05
      0.6130         8.43
      0.6140         8.35
      0.6150         8.28
      0.6160         8.33
      0.6170         8.25
      0.6180         8.05
      0.6190         8.18
      0.6200         8.22
      0.6210         8.22
      0.6220         8.37
      0.6230         8.43
      0.6240         8.39
      0.6250         8.58
      0.6260         8.67
      0.6270         8.70
      0.6280         8.74
      0.6290         8.74
      0.6300         8.80
      0.6310         8.79
      0.6320         8.80
      0.6330         8.86
      0.6340         8.89
      0.6350         8.87
      0.6360         8.85
      0.6370         8.83
      0.6380         8.84
      0.6390         8.83
      0.6400         8.79
      0.6410         8.81
      0.6420         9.25
      0.6430         9.24
      0.6440         9.24
      0.6450         9.18
      0.6460         9.17
      0.6470         9.14
      0.6480         9.19
      0.6490         9.21
      0.6500         9.28
      0.6510         9.29
      0.6520         9.34
      0.6530         9.41
      0.6540         9.46
      0.6550         9.06
      0.6560         9.09
      0.6570         9.11
      0.6580         9.26
      0.6590         9.26
      0.6600         9.36
      0.6610         9.42
      0.6620         9.43
      0.6630         9.55
      0.6640         9.58
      0.6650         9.51
      0.6660         9.95
      0.6670         9.95
      0.6680         9.98
      0.6690         9.97
      0.6700         9.98
      0.6710         9.98
      0.6720         9.96
      0.6730         9.97
      0.6740         9.92
      0.6750         9.86
      0.6760         9.84
      0.6770         9.82
      0.6780         9.81
      0.6790         9.70
      0.6800         9.59
      0.6810         9.53
      0.6820         9.69
      0.6830         9.69
      0.6840         9.22
      0.6850         9.33
      0.6860         9.43
      0.6870         9.62
      0.6880         9.66
      0.6890         9.72
      0.6900         9.66
      0.6910         9.76
      0.6920         9.76
      0.6930         9.71
      0.6940         9.76
      0.6950         9.72
      0.6960         9.80
      0.6970         9.71
      0.6980         9.68
      0.6990        10.29
      0.7000        10.27
      0.7010        10.37
      0.7020        10.27
      0.7030        10.21
      0.7040        10.21
      0.7050        10.26
      0.7060        10.21
      0.7070        10.15
      0.7080        10.11
      0.7090        10.22
      0.7100        10.35
      0.7110        10.33
      0.7120        10.40
      0.7130        10.48
      0.7140        10.51
      0.7150        10.75
      0.7160        10.75
      0.7170        10.83
      0.7180        10.84
      0.7190        10.91
      0.7200        10.95
      0.7210        10.45
      0.7220        10.50
      0.7230        10.49
      0.7240        10.47
      0.7250        10.41
      0.7260        10.48
      0.7270        10.33
      0.7280        10.29
      0.7290        10.67
      0.7300        10.12
      0.7310        10.09
      0.7320        10.07
      0.7330        10.09
      0.7340        10.09
      0.7350         9.99
      0.7360         9.97
      0.7370         9.85
      0.7380         9.97
      0.7390         9.99
      0.7400        10.13
      0.7410        10.16
      0.7420        10.23
      0.7430        10.28
      0.7440        10.37
      0.7450        10.37
      0.7460        10.45
      0.7470        10.68
      0.7480        10.73
      0.7490        10.70
      0.7500        10.69
      0.7510        10.73
      0.7520        10.75
      0.7530        10.72
      0.7540        11.23
      0.7550        11.20
      0.7560        11.22
      0.7570        11.34
      0.7580        11.23
      0.7590        11.14
      0.7600        11.14
      0.7610        11.09
      0.7620        11.06
      0.7630        11.10
      0.7640        11.09
      0.7650        11.09
      0.7660        10.97
      0.7670        10.78
