        Time   Palpation Force
      0.0000         1.00
      0.0010         1.00
      0.0020         1.00
      0.0030         1.00
      0.0040         1.21
      0.0050         1.45
      0.0060         1.69
      0.0070         1.96
      0.0080         2.21
      0.0090         2.42
      0.0100         2.66
      0.0110         2.88
      0.0120         3.11
      0.0130         3.31
      0.0140         3.55
      0.0150         3.71
      0.0160         3.93
      0.0170         4.12
      0.0180         4.33
      0.0190         4.57
      0.0200         4.49
      0.0210         4.52
      0.0220         4.51
      0.0230         4.55
      0.0240         4.48
      0.0250         4.47
      0.0260         4.45
      0.0270         4.45
      0.0280         4.41
      0.0290         4.45
      0.0300         4.49
      0.0310         4.47
      0.0320         4.52
      0.0330         4.53
      0.0340         4.53
      0.0350         4.56
      0.0360         4.56
      0.0370         4.63
      0.0380         4.63
      0.0390         4.60
      0.0400         4.63
      0.0410         4.64
      0.0420         4.67
      0.0430         4.60
      0.0440         4.67
      0.0450         4.57
      0.0460         4.53
      0.0470         4.51
      0.0480         4.52
      0.0490         4.47
      0.0500         4.40
      0.0510         4.40
      0.0520         4.36
      0.0530         4.32
      0.0540         4.27
      0.0550         4.25
      0.0560         4.27
      0.0570         4.23
      0.0580         4.24
      0.0590         4.27
      0.0600         4.28
      0.0610         4.29
      0.0620         4.28
      0.0630         4.23
      0.0640         4.25
      0.0650         4.29
      0.0660         4.35
      0.0670         4.33
      0.0680         4.36
      0.0690         4.36
      0.0700         4.36
      0.0710         4.40
      0.0720         4.32
      0.0730         4.37
      0.0740         4.43
      0.0750         4.37
      0.0760         4.32
      0.0770         4.36
      0.0780         4.27
      0.0790         4.21
      0.0800         4.25
      0.0810         4.25
      0.0820         4.25
      0.0830         4.31
      0.0840         4.29
      0.0850         4.36
      0.0860         4.32
      0.0870         4.31
      0.0880         4.39
      0.0890         4.47
      0.0900         4.53
      0.0910         4.52
      0.0920         4.56
      0.0930         4.60
      0.0940         4.59
      0.0950         4.68
      0.0960         4.72
      0.0970         4.67
      0.0980         4.77
      0.0990         4.75
      0.1000         4.75
      0.1010         4.79
      0.1020         4.75
      0.1030         4.69
      0.1040         4.65
      0.1050         4.58
      0.1060         4.61
      0.1070         4.61
      0.1080         4.46
      0.1090         4.40
      0.1100         4.32
      0.1110         4.34
      0.1120         4.40
      0.1130         4.37
      0.1140         4.38
      0.1150         4.45
      0.1160         4.45
      0.1170         4.49
      0.1180         4.49
      0.1190         4.62
      0.1200         4.64
      0.1210         4.58
      0.1220         4.61
      0.1230         4.61
      0.1240         4.68
      0.1250         4.72
      0.1260         4.72
      0.1270         4.73
      0.1280         4.78
      0.1290         4.78
      0.1300         4.77
      0.1310         4.74
      0.1320         4.73
      0.1330         4.73
      0.1340         4.69
      0.1350         4.61
      0.1360         4.64
      0.1370         4.53
      0.1380         4.52
      0.1390         4.49
      0.1400         4.41
      0.1410         4.44
      0.1420         4.46
      0.1430         4.49
      0.1440         4.44
      0.1450         4.46
      0.1460         4.42
      0.1470         4.36
      0.1480         4.33
      0.1490         4.33
      0.1500         4.34
      0.1510         4.37
      0.1520         4.34
      0.1530         4.30
      0.1540         4.37
      0.1550         4.40
      0.1560         4.40
      0.1570         4.49
      0.1580         4.42
      0.1590         4.37
      0.1600         4.41
      0.1610         4.40
      0.1620         4.34
      0.1630         4.32
      0.1640         4.25
      0.1650         4.24
      0.1660         4.26
      0.1670         4.26
      0.1680         4.28
      0.1690         4.32
      0.1700         4.32
      0.1710         4.28
      0.1720         4.24
      0.1730         4.30
      0.1740         4.28
      0.1750         4.26
      0.1760         4.30
      0.1770         4.33
      0.1780         4.38
      0.1790         4.42
      0.1800         4.49
      0.1810         4.43
      0.1820         4.38
      0.1830         4.38
      0.1840         4.42
      0.1850         4.41
      0.1860         4.46
      0.1870         4.54
      0.1880         4.50
      0.1890         4.39
      0.1900         4.46
      0.1910         4.49
      0.1920         4.54
      0.1930         4.51
      0.1940         4.46
      0.1950         4.42
      0.1960         4.37
      0.1970         4.30
      0.1980         4.34
      0.1990         4.33
      0.2000         4.17
      0.2010         4.22
      0.2020         4.30
      0.2030         4.37
      0.2040         4.42
      0.2050         4.46
      0.2060         4.43
      0.2070         4.45
      0.2080         4.48
      0.2090         4.54
      0.2100         4.51
      0.2110         4.46
      0.2120         4.46
      0.2130         4.49
      0.2140         4.51
      0.2150         4.58
      0.2160         4.61
      0.2170         4.67
      0.2180         4.65
      0.2190         4.57
      0.2200         4.66
      0.2210         4.64
      0.2220         4.62
      0.2230         4.58
      0.2240         4.51
      0.2250         4.56
      0.2260         4.58
      0.2270         4.52
      0.2280         4.58
      0.2290         4.61
      0.2300         4.58
      0.2310         4.65
      0.2320         4.62
      0.2330         4.65
      0.2340         4.65
      0.2350         4.62
      0.2360         4.64
      0.2370         4.64
      0.2380         4.68
      0.2390         4.70
      0.2400         4.73
      0.2410         4.73
      0.2420         4.77
      0.2430         4.76
      0.2440         4.70
      0.2450         4.58
      0.2460         4.50
      0.2470         4.56
      0.2480         4.52
      0.2490         4.49
      0.2500         4.49
      0.2510         4.49
      0.2520         4.52
      0.2530         4.45
      0.2540         4.42
      0.2550         4.49
      0.2560         4.45
      0.2570         4.44
      0.2580         4.40
      0.2590         4.41
      0.2600         4.41
      0.2610         4.44
      0.2620         4.40
      0.2630         4.44
      0.2640         4.55
      0.2650         4.63
      0.2660         4.67
      0.2670         4.71
      0.2680         4.72
      0.2690         4.72
      0.2700         4.73
      0.2710         4.68
      0.2720         4.63
      0.2730         4.65
      0.2740         4.69
      0.2750         4.60
      0.2760         4.59
      0.2770         4.56
      0.2780         4.51
      0.2790         4.43
      0.2800         4.39
      0.2810         4.36
      0.2820         4.37
      0.2830         4.30
      0.2840         4.25
      0.2850         4.24
      0.2860         4.24
      0.2870         4.14
      0.2880         4.13
      0.2890         4.14
      0.2900         4.18
      0.2910         4.21
      0.2920         4.25
      0.2930         4.24
      0.2940         4.25
      0.2950         4.32
      0.2960         4.32
      0.2970         4.37
      0.2980         4.45
      0.2990         4.53
      0.3000         4.49
      0.3010         4.51
      0.3020         4.48
      0.3030         4.53
      0.3040         4.53
      0.3050         4.53
      0.3060         4.55
      0.3070         4.57
      0.3080         4.57
      0.3090         4.55
      0.3100         4.49
      0.3110         4.55
      0.3120         4.60
      0.3130         4.61
      0.3140         4.55
      0.3150         4.49
      0.3160         4.48
      0.3170         4.45
      0.3180         4.44
      0.3190         4.45
      0.3200         4.48
      0.3210         4.51
      0.3220         4.60
      0.3230         4.53
      0.3240         4.59
      0.3250         4.59
      0.3260         4.63
      0.3270         4.61
      0.3280         4.67
      0.3290         4.65
      0.3300         4.67
      0.3310         4.57
      0.3320         4.55
      0.3330         4.49
      0.3340         4.51
      0.3350         4.44
      0.3360         4.44
      0.3370         4.44
      0.3380         4.39
      0.3390         4.39
      0.3400         4.45
      0.3410         4.44
      0.3420         4.35
      0.3430         4.37
      0.3440         4.29
      0.3450         4.29
      0.3460         4.24
      0.3470         4.21
      0.3480         4.15
      0.3490         4.23
      0.3500         4.21
      0.3510         4.27
      0.3520         4.20
      0.3530         4.24
      0.3540         4.28
      0.3550         4.36
      0.3560         4.39
      0.3570         4.43
      0.3580         4.45
      0.3590         4.43
      0.3600         4.35
      0.3610         4.28
      0.3620         4.36
      0.3630         4.36
      0.3640         4.41
      0.3650         4.31
      0.3660         4.27
      0.3670         4.31
      0.3680         4.24
      0.3690         4.15
      0.3700         4.16
      0.3710         4.12
      0.3720         4.16
      0.3730         4.16
      0.3740         4.15
      0.3750         4.15
      0.3760         4.23
      0.3770         4.15
      0.3780         4.17
      0.3790         4.23
      0.3800         4.32
      0.3810         4.43
      0.3820         4.39
      0.3830         4.48
      0.3840         4.55
      0.3850         4.65
      0.3860         4.67
      0.3870         4.70
      0.3880         4.86
      0.3890         4.91
      0.3900         4.88
      0.3910         4.96
      0.3920         4.95
      0.3930         4.90
      0.3940         4.94
      0.3950         4.88
      0.3960         4.78
      0.3970         4.83
      0.3980         4.70
      0.3990         4.63
      0.4000         4.62
      0.4010         4.55
      0.4020         4.51
      0.4030         4.47
      0.4040         4.36
      0.4050         4.42
      0.4060         4.43
      0.4070         4.40
      0.4080         4.30
      0.4090         4.32
      0.4100         4.38
      0.4110         4.36
      0.4120         4.38
      0.4130         4.47
      0.4140         4.46
      0.4150         4.48
      0.4160         4.50
      0.4170         4.48
      0.4180         4.59
      0.4190         4.66
      0.4200         4.58
      0.4210         4.59
      0.4220         4.52
      0.4230         4.49
      0.4240         4.51
      0.4250         4.37
      0.4260         4.33
      0.4270         4.36
      0.4280         4.36
      0.4290         4.28
      0.4300         4.27
      0.4310         4.21
      0.4320         4.24
      0.4330         4.16
      0.4340         4.09
      0.4350         4.08
      0.4360         4.21
      0.4370         4.24
      0.4380         4.27
      0.4390         4.23
      0.4400         4.35
      0.4410         4.44
      0.4420         4.54
      0.4430         4.58
      0.4440         4.62
      0.4450         4.75
      0.4460         4.75
      0.4470         4.67
      0.4480         4.70
      0.4490         4.82
      0.4500         4.76
      0.4510         4.74
      0.4520         4.64
      0.4530         4.66
      0.4540         4.64
      0.4550         4.62
      0.4560         4.44
      0.4570         4.40
      0.4580         4.31
      0.4590         4.25
      0.4600         4.19
      0.4610         4.13
      0.4620         4.07
      0.4630         4.00
      0.4640         3.95
      0.4650         3.91
      0.4660         3.99
      0.4670         4.07
      0.4680         4.07
      0.4690         4.09
      0.4700         4.18
      0.4710         4.28
      0.4720         4.36
      0.4730         4.40
      0.4740         4.47
      0.4750         4.56
      0.4760         4.60
      0.4770         4.56
      0.4780         4.66
      0.4790         4.70
      0.4800         4.64
      0.4810         4.56
      0.4820         4.58
      0.4830         4.60
      0.4840         4.63
      0.4850         4.58
      0.4860         4.58
      0.4870         4.59
      0.4880         4.51
      0.4890         4.37
      0.4900         4.31
      0.4910         4.28
      0.4920         4.36
      0.4930         4.36
      0.4940         4.34
      0.4950         4.34
      0.4960         4.32
      0.4970         4.32
      0.4980         4.34
      0.4990         4.35
      0.5000         4.31
      0.5010         4.39
      0.5020         4.39
      0.5030         4.39
      0.5040         4.43
      0.5050         4.40
      0.5060         4.28
      0.5070         4.28
      0.5080         4.34
      0.5090         4.30
      0.5100         4.32
      0.5110         4.30
      0.5120         4.19
      0.5130         4.20
      0.5140         4.20
      0.5150         4.11
      0.5160         4.07
      0.5170         4.07
      0.5180         4.01
      0.5190         4.03
      0.5200         4.12
      0.5210         4.04
      0.5220         4.04
      0.5230         3.98
      0.5240         3.99
      0.5250         4.11
      0.5260         4.24
      0.5270         4.16
      0.5280         4.16
      0.5290         4.30
      0.5300         4.34
      0.5310         4.39
      0.5320         4.40
      0.5330         4.35
      0.5340         4.40
      0.5350         4.51
      0.5360         4.58
      0.5370         4.56
      0.5380         4.64
      0.5390         4.63
      0.5400         4.56
      0.5410         4.62
      0.5420         4.60
      0.5430         4.67
      0.5440         4.66
      0.5450         4.51
      0.5460         4.50
      0.5470         4.52
      0.5480         4.51
      0.5490         4.44
      0.5500         4.40
      0.5510         4.35
      0.5520         4.36
      0.5530         4.39
      0.5540         4.34
      0.5550         4.34
      0.5560         4.36
      0.5570         4.39
      0.5580         4.39
      0.5590         4.44
      0.5600         4.51
      0.5610         4.49
      0.5620         4.57
      0.5630         4.61
      0.5640         4.57
      0.5650         4.62
      0.5660         4.60
      0.5670         4.63
      0.5680         4.66
      0.5690         4.62
      0.5700         4.63
      0.5710         4.58
      0.5720         4.52
      0.5730         4.43
      0.5740         4.46
      0.5750         4.44
      0.5760         4.38
      0.5770         4.34
      0.5780         4.27
      0.5790         4.24
      0.5800         4.26
      0.5810         4.22
      0.5820         4.16
      0.5830         4.06
      0.5840         4.00
      0.5850         4.04
      0.5860         4.06
      0.5870         4.07
      0.5880         4.12
      0.5890         4.23
      0.5900         4.24
      0.5910         4.31
      0.5920         4.36
      0.5930         4.38
      0.5940         4.38
      0.5950         4.31
      0.5960         4.27
      0.5970         4.35
      0.5980         4.35
      0.5990         4.32
      0.6000         4.22
      0.6010         4.24
      0.6020         4.16
      0.6030         4.22
      0.6040         4.35
      0.6050         4.26
      0.6060         4.26
      0.6070         4.22
      0.6080         4.08
      0.6090         4.02
      0.6100         3.98
      0.6110         3.99
      0.6120         4.03
      0.6130         4.11
      0.6140         4.04
      0.6150         4.07
      0.6160         4.20
      0.6170         4.22
      0.6180         4.27
      0.6190         4.31
      0.6200         4.42
      0.6210         4.50
      0.6220         4.66
      0.6230         4.61
      0.6240         4.50
      0.6250         4.59
      0.6260         4.52
      0.6270         4.48
      0.6280         4.56
      0.6290         4.58
      0.6300         4.58
      0.6310         4.50
      0.6320         4.51
      0.6330         4.50
      0.6340         4.52
      0.6350         4.50
      0.6360         4.43
      0.6370         4.42
      0.6380         4.40
      0.6390         4.36
      0.6400         4.30
      0.6410         4.27
      0.6420         4.23
      0.6430         4.31
      0.6440         4.40
      0.6450         4.35
      0.6460         4.42
      0.6470         4.44
      0.6480         4.43
      0.6490         4.44
      0.6500         4.47
      0.6510         4.56
      0.6520         4.54
      0.6530         4.55
      0.6540         4.54
      0.6550         4.62
      0.6560         4.54
      0.6570         4.47
      0.6580         4.43
      0.6590         4.42
      0.6600         4.40
      0.6610         4.38
      0.6620         4.38
      0.6630         4.42
      0.6640         4.32
      0.6650         4.39
      0.6660         4.35
      0.6670         4.39
      0.6680         4.42
      0.6690         4.39
      0.6700         4.40
      0.6710         4.36
      0.6720         4.34
      0.6730         4.38
      0.6740         4.55
      0.6750         4.56
      0.6760         4.70
      0.6770         4.83
      0.6780         5.43
      0.6790         5.52
      0.6800         5.62
      0.6810         5.62
      0.6820         5.58
      0.6830         5.51
      0.6840         5.55
      0.6850         5.50
      0.6860         5.52
      0.6870         4.95
      0.6880         4.97
      0.6890         5.02
      0.6900         4.95
      0.6910         4.94
      0.6920         4.94
      0.6930         4.95
      0.6940         4.89
      0.6950         4.85
      0.6960         4.74
      0.6970         4.70
      0.6980         4.65
      0.6990         4.65
      0.7000         4.63
      0.7010         4.67
      0.7020         4.74
      0.7030         5.39
      0.7040         5.51
      0.7050         5.56
      0.7060         5.63
      0.7070         5.90
      0.7080         5.94
      0.7090         5.95
      0.7100         6.10
      0.7110         6.10
      0.7120         6.12
      0.7130         6.08
      0.7140         6.07
      0.7150         6.12
      0.7160         6.28
      0.7170         6.16
      0.7180         6.16
      0.7190         6.11
      0.7200         6.12
      0.7210         6.07
      0.7220         6.10
      0.7230         5.87
      0.7240         5.79
      0.7250         5.83
      0.7260         5.92
      0.7270         5.83
      0.7280         5.76
      0.7290         5.83
      0.7300         5.83
      0.7310         5.91
      0.7320         5.91
      0.7330         6.01
      0.7340         6.16
      0.7350         6.16
      0.7360         6.20
      0.7370         6.35
      0.7380         6.34
      0.7390         6.40
      0.7400         6.51
      0.7410         6.47
      0.7420         6.43
      0.7430         6.58
      0.7440         6.60
      0.7450         6.63
      0.7460         6.58
      0.7470         6.48
      0.7480         6.56
      0.7490         6.50
      0.7500         6.52
      0.7510         6.55
      0.7520         6.59
      0.7530         6.56
      0.7540         6.44
      0.7550         6.47
      0.7560         6.39
      0.7570         6.43
      0.7580         6.54
      0.7590         6.62
      0.7600         6.64
      0.7610         6.79
      0.7620         6.90
      0.7630         6.98
      0.7640         7.15
      0.7650         7.27
      0.7660         7.34
      0.7670         7.50
