        Time   Palpation Force
      0.0000         1.00
      0.0010         1.00
      0.0020         1.00
      0.0030         1.11
      0.0040         1.43
      0.0050         1.70
      0.0060         2.01
      0.0070         2.30
      0.0080         2.53
      0.0090         2.81
      0.0100         3.13
      0.0110         3.50
      0.0120         3.79
      0.0130         4.11
      0.0140         4.44
      0.0150         4.71
      0.0160         5.02
      0.0170         5.36
      0.0180         5.65
      0.0190         6.01
      0.0200         5.94
      0.0210         6.00
      0.0220         6.00
      0.0230         6.04
      0.0240         6.00
      0.0250         5.98
      0.0260         6.01
      0.0270         5.98
      0.0280         6.01
      0.0290         5.99
      0.0300         5.97
      0.0310         5.85
      0.0320         5.89
      0.0330         5.82
      0.0340         5.79
      0.0350         5.79
      0.0360         5.85
      0.0370         5.77
      0.0380         5.74
      0.0390         5.69
      0.0400         5.82
      0.0410         5.77
      0.0420         5.76
      0.0430         5.81
      0.0440         5.81
      0.0450         5.86
      0.0460         5.84
      0.0470         5.88
      0.0480         5.89
      0.0490         5.90
      0.0500         5.92
      0.0510         5.98
      0.0520         5.92
      0.0530         5.96
      0.0540         5.90
      0.0550         5.94
      0.0560         5.89
      0.0570         5.88
      0.0580         5.85
      0.0590         5.86
      0.0600         5.77
      0.0610         5.81
      0.0620         5.86
      0.0630         5.86
      0.0640         5.86
      0.0650         5.84
      0.0660         5.80
      0.0670         5.84
      0.0680         5.82
      0.0690         5.90
      0.0700         5.89
      0.0710         5.93
      0.0720         5.98
      0.0730         6.01
      0.0740         6.05
      0.0750         5.93
      0.0760         5.97
      0.0770         6.02
      0.0780         6.05
      0.0790         6.09
      0.0800         6.08
      0.0810         6.05
      0.0820         6.01
      0.0830         5.90
      0.0840         5.90
      0.0850         5.80
      0.0860         5.80
      0.0870         5.77
      0.0880         5.80
      0.0890         5.70
      0.0900         5.66
      0.0910         5.64
      0.0920         5.58
      0.0930         5.53
      0.0940         5.58
      0.0950         5.73
      0.0960         5.69
      0.0970         5.69
      0.0980         5.69
      0.0990         5.64
      0.1000         5.69
      0.1010         5.79
      0.1020         5.80
      0.1030         5.89
      0.1040         5.92
      0.1050         6.04
      0.1060         6.12
      0.1070         6.07
      0.1080         6.03
      0.1090         6.02
      0.1100         6.01
      0.1110         5.92
      0.1120         5.96
      0.1130         5.98
      0.1140         5.98
      0.1150         5.85
      0.1160         5.85
      0.1170         5.82
      0.1180         5.81
      0.1190         5.74
      0.1200         5.72
      0.1210         5.68
      0.1220         5.73
      0.1230         5.70
      0.1240         5.72
      0.1250         5.72
      0.1260         5.73
      0.1270         5.81
      0.1280         5.86
      0.1290         5.88
      0.1300         6.01
      0.1310         6.14
      0.1320         6.14
      0.1330         6.17
      0.1340         6.13
      0.1350         6.24
      0.1360         6.24
      0.1370         6.26
      0.1380         6.26
      0.1390         6.30
      0.1400         6.30
      0.1410         6.25
      0.1420         6.17
      0.1430         6.14
      0.1440         6.12
      0.1450         6.16
      0.1460         6.09
      0.1470         6.01
      0.1480         6.02
      0.1490         6.04
      0.1500         5.92
      0.1510         5.84
      0.1520         5.78
      0.1530         5.70
      0.1540         5.67
      0.1550         5.59
      0.1560         5.63
      0.1570         5.66
      0.1580         5.81
      0.1590         5.84
      0.1600         5.84
      0.1610         5.88
      0.1620         5.94
      0.1630         5.97
      0.1640         5.97
      0.1650         5.96
      0.1660         5.89
      0.1670         5.94
      0.1680         5.94
      0.1690         5.97
      0.1700         6.01
      0.1710         6.03
      0.1720         6.07
      0.1730         6.12
      0.1740         6.14
      0.1750         6.25
      0.1760         6.20
      0.1770         6.10
      0.1780         6.00
      0.1790         5.94
      0.1800         5.90
      0.1810         5.87
      0.1820         5.77
      0.1830         5.74
      0.1840         5.71
      0.1850         5.74
      0.1860         5.82
      0.1870         5.77
      0.1880         5.73
      0.1890         5.77
      0.1900         5.81
      0.1910         5.82
      0.1920         5.88
      0.1930         5.93
      0.1940         5.90
      0.1950         5.81
      0.1960         5.82
      0.1970         5.86
      0.1980         5.90
      0.1990         5.94
      0.2000         5.95
      0.2010         5.95
      0.2020         6.05
      0.2030         6.04
      0.2040         6.01
      0.2050         5.91
      0.2060         5.87
      0.2070         5.87
      0.2080         5.82
      0.2090         5.73
      0.2100         5.66
      0.2110         5.58
      0.2120         5.57
      0.2130         5.47
      0.2140         5.54
      0.2150         5.58
      0.2160         5.53
      0.2170         5.51
      0.2180         5.47
      0.2190         5.46
      0.2200         5.46
      0.2210         5.43
      0.2220         5.43
      0.2230         5.42
      0.2240         5.53
      0.2250         5.58
      0.2260         5.53
      0.2270         5.55
      0.2280         5.63
      0.2290         5.66
      0.2300         5.67
      0.2310         5.69
      0.2320         5.65
      0.2330         5.65
      0.2340         5.58
      0.2350         5.53
      0.2360         5.59
      0.2370         5.66
      0.2380         5.65
      0.2390         5.63
      0.2400         5.62
      0.2410         5.72
      0.2420         5.69
      0.2430         5.77
      0.2440         5.70
      0.2450         5.66
      0.2460         5.69
      0.2470         5.69
      0.2480         5.72
      0.2490         5.78
      0.2500         5.84
      0.2510         5.89
      0.2520         5.93
      0.2530         6.01
      0.2540         6.00
      0.2550         6.05
      0.2560         6.08
      0.2570         6.02
      0.2580         6.02
      0.2590         6.04
      0.2600         6.00
      0.2610         5.94
      0.2620         5.93
      0.2630         5.89
      0.2640         5.84
      0.2650         5.84
      0.2660         5.89
      0.2670         5.94
      0.2680         5.85
      0.2690         5.81
      0.2700         5.77
      0.2710         5.78
      0.2720         5.75
      0.2730         5.70
      0.2740         5.77
      0.2750         5.73
      0.2760         5.66
      0.2770         5.70
      0.2780         5.71
      0.2790         5.70
      0.2800         5.82
      0.2810         5.79
      0.2820         5.82
      0.2830         5.81
      0.2840         5.86
      0.2850         5.85
      0.2860         5.82
      0.2870         5.77
      0.2880         5.79
      0.2890         5.77
      0.2900         5.77
      0.2910         5.77
      0.2920         5.71
      0.2930         5.71
      0.2940         5.59
      0.2950         5.58
      0.2960         5.58
      0.2970         5.58
      0.2980         5.61
      0.2990         5.65
      0.3000         5.59
      0.3010         5.59
      0.3020         5.57
      0.3030         5.66
      0.3040         5.70
      0.3050         5.77
      0.3060         5.82
      0.3070         5.75
      0.3080         5.77
      0.3090         5.79
      0.3100         5.82
      0.3110         5.86
      0.3120         5.87
      0.3130         5.89
      0.3140         5.94
      0.3150         6.03
      0.3160         6.03
      0.3170         5.99
      0.3180         5.97
      0.3190         5.94
      0.3200         5.94
      0.3210         5.89
      0.3220         5.88
      0.3230         5.70
      0.3240         5.62
      0.3250         5.54
      0.3260         5.50
      0.3270         5.58
      0.3280         5.57
      0.3290         5.54
      0.3300         5.54
      0.3310         5.48
      0.3320         5.48
      0.3330         5.53
      0.3340         5.57
      0.3350         5.48
      0.3360         5.53
      0.3370         5.58
      0.3380         5.57
      0.3390         5.62
      0.3400         5.62
      0.3410         5.69
      0.3420         5.73
      0.3430         5.78
      0.3440         5.81
      0.3450         5.92
      0.3460         5.94
      0.3470         5.86
      0.3480         5.89
      0.3490         5.84
      0.3500         5.80
      0.3510         5.76
      0.3520         5.69
      0.3530         5.61
      0.3540         5.60
      0.3550         5.61
      0.3560         5.53
      0.3570         5.50
      0.3580         5.53
      0.3590         5.54
      0.3600         5.54
      0.3610         5.58
      0.3620         5.56
      0.3630         5.61
      0.3640         5.62
      0.3650         5.53
      0.3660         5.45
      0.3670         5.56
      0.3680         5.56
      0.3690         5.56
      0.3700         5.50
      0.3710         5.56
      0.3720         5.61
      0.3730         5.67
      0.3740         5.64
      0.3750         5.59
      0.3760         5.60
      0.3770         5.61
      0.3780         5.56
      0.3790         5.51
      0.3800         5.49
      0.3810         5.41
      0.3820         5.43
      0.3830         5.40
      0.3840         5.36
      0.3850         5.42
      0.3860         5.47
      0.3870         5.37
      0.3880         5.35
      0.3890         5.39
      0.3900         5.48
      0.3910         5.44
      0.3920         5.48
      0.3930         5.49
      0.3940         5.52
      0.3950         5.65
      0.3960         5.71
      0.3970         5.71
      0.3980         5.71
      0.3990         5.71
      0.4000         5.81
      0.4010         5.84
      0.4020         5.80
      0.4030         5.80
      0.4040         5.88
      0.4050         5.82
      0.4060         5.84
      0.4070         5.80
      0.4080         5.82
      0.4090         5.76
      0.4100         5.70
      0.4110         5.76
      0.4120         5.76
      0.4130         5.78
      0.4140         5.79
      0.4150         5.74
      0.4160         5.72
      0.4170         5.70
      0.4180         5.72
      0.4190         5.71
      0.4200         5.66
      0.4210         5.63
      0.4220         5.64
      0.4230         5.67
      0.4240         5.67
      0.4250         5.76
      0.4260         5.80
      0.4270         5.92
      0.4280         5.90
      0.4290         5.99
      0.4300         6.08
      0.4310         6.03
      0.4320         6.02
      0.4330         5.92
      0.4340         5.92
      0.4350         5.88
      0.4360         5.84
      0.4370         5.87
      0.4380         5.87
      0.4390         5.88
      0.4400         5.83
      0.4410         5.91
      0.4420         5.92
      0.4430         5.88
      0.4440         5.90
      0.4450         5.82
      0.4460         5.75
      0.4470         5.74
      0.4480         5.80
      0.4490         5.78
      0.4500         5.78
      0.4510         5.79
      0.4520         5.80
      0.4530         5.87
      0.4540         5.87
      0.4550         6.00
      0.4560         6.12
      0.4570         6.08
      0.4580         6.11
      0.4590         6.10
      0.4600         6.11
      0.4610         6.10
      0.4620         6.15
      0.4630         6.12
      0.4640         6.08
      0.4650         6.07
      0.4660         6.12
      0.4670         6.10
      0.4680         6.11
      0.4690         6.12
      0.4700         6.06
      0.4710         6.06
      0.4720         6.08
      0.4730         6.10
      0.4740         6.04
      0.4750         5.94
      0.4760         5.87
      0.4770         5.91
      0.4780         5.90
      0.4790         5.92
      0.4800         5.98
      0.4810         5.95
      0.4820         5.98
      0.4830         5.98
      0.4840         6.00
      0.4850         6.04
      0.4860         6.02
      0.4870         6.03
      0.4880         6.03
      0.4890         5.99
      0.4900         6.00
      0.4910         5.99
      0.4920         5.97
      0.4930         5.85
      0.4940         5.88
      0.4950         5.92
      0.4960         5.83
      0.4970         5.81
      0.4980         5.87
      0.4990         5.87
      0.5000         5.84
      0.5010         5.89
      0.5020         5.80
      0.5030         5.87
      0.5040         5.84
      0.5050         5.87
      0.5060         5.81
      0.5070         5.80
      0.5080         5.76
      0.5090         5.79
      0.5100         5.76
      0.5110         5.81
      0.5120         5.81
      0.5130         5.91
      0.5140         5.88
      0.5150         5.87
      0.5160         5.99
      0.5170         6.03
      0.5180         5.99
      0.5190         6.05
      0.5200         6.05
      0.5210         5.99
      0.5220         5.99
      0.5230         5.96
      0.5240         5.97
      0.5250         5.95
      0.5260         6.00
      0.5270         5.99
      0.5280         6.00
      0.5290         5.96
      0.5300         5.95
      0.5310         5.91
      0.5320         5.85
      0.5330         5.77
      0.5340         5.83
      0.5350         5.81
      0.5360         5.79
      0.5370         5.77
      0.5380         5.75
      0.5390         5.72
      0.5400         5.77
      0.5410         5.75
      0.5420         5.88
      0.5430         5.88
      0.5440         5.84
      0.5450         5.85
      0.5460         5.88
      0.5470         5.93
      0.5480         5.96
      0.5490         5.99
      0.5500         5.99
      0.5510         6.04
      0.5520         6.02
      0.5530         6.08
      0.5540         6.08
      0.5550         6.08
      0.5560         5.99
      0.5570         5.98
      0.5580         5.94
      0.5590         5.88
      0.5600         5.79
      0.5610         5.80
      0.5620         5.74
      0.5630         5.76
      0.5640         5.72
      0.5650         5.70
      0.5660         5.67
      0.5670         5.71
      0.5680         5.70
      0.5690         5.82
      0.5700         5.84
      0.5710         5.79
      0.5720         5.91
      0.5730         5.94
      0.5740         5.98
      0.5750         6.02
      0.5760         6.08
      0.5770         6.08
      0.5780         6.10
      0.5790         6.16
      0.5800         6.23
      0.5810         6.23
      0.5820         6.16
      0.5830         6.10
      0.5840         6.19
      0.5850         6.20
      0.5860         6.17
      0.5870         6.12
      0.5880         6.13
      0.5890         5.99
      0.5900         6.00
      0.5910         6.01
      0.5920         5.93
      0.5930         5.95
      0.5940         5.89
      0.5950         5.89
      0.5960         5.90
      0.5970         5.93
      0.5980         6.01
      0.5990         5.98
      0.6000         5.98
      0.6010         6.02
      0.6020         6.13
      0.6030         6.16
      0.6040         6.14
      0.6050         6.16
      0.6060         6.18
      0.6070         6.14
      0.6080         6.17
      0.6090         6.20
      0.6100         6.18
      0.6110         6.18
      0.6120         6.18
      0.6130         6.13
      0.6140         6.09
      0.6150         6.02
      0.6160         5.93
      0.6170         5.81
      0.6180         5.78
      0.6190         5.73
      0.6200         5.66
      0.6210         5.69
      0.6220         5.66
      0.6230         5.65
      0.6240         5.64
      0.6250         5.69
      0.6260         5.72
      0.6270         5.66
      0.6280         5.64
      0.6290         5.68
      0.6300         5.74
      0.6310         5.76
      0.6320         5.81
      0.6330         5.90
      0.6340         5.96
      0.6350         6.01
      0.6360         6.07
      0.6370         6.14
      0.6380         6.14
      0.6390         6.13
      0.6400         6.14
      0.6410         6.08
      0.6420         6.09
      0.6430         6.13
      0.6440         6.10
      0.6450         6.07
      0.6460         6.08
      0.6470         6.16
      0.6480         6.12
      0.6490         6.09
      0.6500         6.04
      0.6510         6.00
      0.6520         6.07
      0.6530         5.99
      0.6540         5.96
      0.6550         5.96
      0.6560         5.93
      0.6570         6.00
      0.6580         6.00
      0.6590         6.08
      0.6600         6.08
      0.6610         6.12
      0.6620         6.10
      0.6630         6.10
      0.6640         6.10
      0.6650         6.06
      0.6660         6.00
      0.6670         5.96
      0.6680         5.88
      0.6690         5.88
      0.6700         5.84
      0.6710         5.80
      0.6720         5.71
      0.6730         5.69
      0.6740         5.71
      0.6750         5.68
      0.6760         5.71
      0.6770         5.61
      0.6780         5.57
      0.6790         5.56
      0.6800         5.56
      0.6810         5.57
      0.6820         5.57
      0.6830         5.61
      0.6840         5.67
      0.6850         5.72
      0.6860         5.75
      0.6870         5.88
      0.6880         6.06
      0.6890         6.01
      0.6900         6.11
      0.6910         6.18
      0.6920         6.22
      0.6930         6.26
      0.6940         6.27
      0.6950         6.27
      0.6960         6.24
      0.6970         6.27
      0.6980         6.35
      0.6990         6.23
      0.7000         6.30
      0.7010         6.22
      0.7020         6.18
      0.7030         6.04
      0.7040         5.96
      0.7050         5.89
      0.7060         5.85
      0.7070         5.77
      0.7080         5.73
      0.7090         5.68
      0.7100         5.65
      0.7110         5.67
      0.7120         5.57
      0.7130         5.56
      0.7140         5.55
      0.7150         5.52
      0.7160         5.59
      0.7170         5.60
      0.7180         5.55
      0.7190         5.60
      0.7200         5.51
      0.7210         5.55
      0.7220         5.53
      0.7230         5.63
      0.7240         5.61
      0.7250         5.61
      0.7260         5.67
      0.7270         5.64
      0.7280         5.56
      0.7290         5.68
      0.7300         5.65
      0.7310         5.60
      0.7320         5.64
      0.7330         5.57
      0.7340         5.60
      0.7350         5.59
      0.7360         5.60
      0.7370         5.49
      0.7380         5.49
      0.7390         5.52
      0.7400         5.56
      0.7410         5.61
      0.7420         5.65
      0.7430         5.63
      0.7440         5.71
      0.7450         5.72
      0.7460         5.72
      0.7470         5.72
      0.7480         5.84
      0.7490         5.80
      0.7500         5.83
      0.7510         5.85
      0.7520         5.89
      0.7530         5.98
      0.7540         5.93
      0.7550         5.99
      0.7560         5.93
      0.7570         6.03
      0.7580         6.00
      0.7590         6.06
      0.7600         6.02
      0.7610         5.99
      0.7620         5.98
      0.7630         6.03
      0.7640         5.99
      0.7650         5.96
      0.7660         5.92
      0.7670         5.95
