        Time   Palpation Force
      0.0000         1.00
      0.0010         1.00
      0.0020         1.00
      0.0030         1.02
      0.0040         1.28
      0.0050         1.55
      0.0060         1.86
      0.0070         2.18
      0.0080         2.43
      0.0090         2.76
      0.0100         3.05
      0.0110         3.32
      0.0120         3.62
      0.0130         3.94
      0.0140         4.24
      0.0150         4.53
      0.0160         4.83
      0.0170         5.11
      0.0180         5.34
      0.0190         5.64
      0.0200         5.65
      0.0210         5.69
      0.0220         5.66
      0.0230         5.74
      0.0240         5.78
      0.0250         5.80
      0.0260         5.74
      0.0270         5.69
      0.0280         5.77
      0.0290         5.69
      0.0300         5.70
      0.0310         5.74
      0.0320         5.73
      0.0330         5.70
      0.0340         5.74
      0.0350         5.68
      0.0360         5.65
      0.0370         5.69
      0.0380         5.82
      0.0390         5.82
      0.0400         5.92
      0.0410         5.96
      0.0420         5.97
      0.0430         5.89
      0.0440         5.96
      0.0450         5.96
      0.0460         6.01
      0.0470         5.96
      0.0480         5.84
      0.0490         5.86
      0.0500         5.80
      0.0510         5.76
      0.0520         5.74
      0.0530         5.78
      0.0540         5.69
      0.0550         5.74
      0.0560         5.76
      0.0570         5.66
      0.0580         5.62
      0.0590         5.61
      0.0600         5.53
      0.0610         5.55
      0.0620         5.58
      0.0630         5.65
      0.0640         5.59
      0.0650         5.57
      0.0660         5.57
      0.0670         5.69
      0.0680         5.76
      0.0690         5.81
      0.0700         5.85
      0.0710         5.82
      0.0720         5.89
      0.0730         5.88
      0.0740         5.88
      0.0750         5.92
      0.0760         5.93
      0.0770         5.96
      0.0780         5.82
      0.0790         5.80
      0.0800         5.73
      0.0810         5.62
      0.0820         5.54
      0.0830         5.48
      0.0840         5.45
      0.0850         5.48
      0.0860         5.42
      0.0870         5.38
      0.0880         5.40
      0.0890         5.38
      0.0900         5.37
      0.0910         5.38
      0.0920         5.34
      0.0930         5.22
      0.0940         5.29
      0.0950         5.24
      0.0960         5.26
      0.0970         5.26
      0.0980         5.37
      0.0990         5.37
      0.1000         5.44
      0.1010         5.56
      0.1020         5.64
      0.1030         5.79
      0.1040         5.78
      0.1050         5.76
      0.1060         5.77
      0.1070         5.79
      0.1080         5.73
      0.1090         5.75
      0.1100         5.69
      0.1110         5.71
      0.1120         5.71
      0.1130         5.83
      0.1140         5.77
      0.1150         5.74
      0.1160         5.70
      0.1170         5.70
      0.1180         5.69
      0.1190         5.68
      0.1200         5.65
      0.1210         5.65
      0.1220         5.64
      0.1230         5.56
      0.1240         5.57
      0.1250         5.66
      0.1260         5.70
      0.1270         5.62
      0.1280         5.74
      0.1290         5.72
      0.1300         5.78
      0.1310         5.80
      0.1320         5.86
      0.1330         5.81
      0.1340         5.86
      0.1350         5.88
      0.1360         5.85
      0.1370         5.88
      0.1380         5.86
      0.1390         5.94
      0.1400         5.95
      0.1410         5.87
      0.1420         5.83
      0.1430         5.78
      0.1440         5.75
      0.1450         5.71
      0.1460         5.65
      0.1470         5.67
      0.1480         5.63
      0.1490         5.63
      0.1500         5.62
      0.1510         5.58
      0.1520         5.50
      0.1530         5.58
      0.1540         5.58
      0.1550         5.66
      0.1560         5.71
      0.1570         5.66
      0.1580         5.73
      0.1590         5.73
      0.1600         5.73
      0.1610         5.77
      0.1620         5.81
      0.1630         5.89
      0.1640         5.92
      0.1650         5.89
      0.1660         5.85
      0.1670         5.84
      0.1680         5.79
      0.1690         5.74
      0.1700         5.73
      0.1710         5.73
      0.1720         5.71
      0.1730         5.66
      0.1740         5.58
      0.1750         5.50
      0.1760         5.53
      0.1770         5.58
      0.1780         5.53
      0.1790         5.49
      0.1800         5.51
      0.1810         5.51
      0.1820         5.46
      0.1830         5.39
      0.1840         5.33
      0.1850         5.31
      0.1860         5.43
      0.1870         5.55
      0.1880         5.54
      0.1890         5.62
      0.1900         5.75
      0.1910         5.79
      0.1920         5.82
      0.1930         5.82
      0.1940         5.92
      0.1950         5.89
      0.1960         5.77
      0.1970         5.74
      0.1980         5.70
      0.1990         5.71
      0.2000         5.62
      0.2010         5.62
      0.2020         5.66
      0.2030         5.63
      0.2040         5.70
      0.2050         5.74
      0.2060         5.71
      0.2070         5.54
      0.2080         5.58
      0.2090         5.53
      0.2100         5.39
      0.2110         5.42
      0.2120         5.43
      0.2130         5.42
      0.2140         5.38
      0.2150         5.51
      0.2160         5.55
      0.2170         5.58
      0.2180         5.63
      0.2190         5.65
      0.2200         5.77
      0.2210         5.75
      0.2220         5.73
      0.2230         5.78
      0.2240         5.78
      0.2250         5.75
      0.2260         5.71
      0.2270         5.80
      0.2280         5.78
      0.2290         5.76
      0.2300         5.83
      0.2310         5.82
      0.2320         5.79
      0.2330         5.80
      0.2340         5.82
      0.2350         5.75
      0.2360         5.74
      0.2370         5.76
      0.2380         5.75
      0.2390         5.78
      0.2400         5.74
      0.2410         5.78
      0.2420         5.85
      0.2430         5.86
      0.2440         5.91
      0.2450         5.93
      0.2460         6.02
      0.2470         6.05
      0.2480         6.07
      0.2490         6.69
      0.2500         6.65
      0.2510         6.73
      0.2520         6.77
      0.2530         6.73
      0.2540         6.62
      0.2550         6.69
      0.2560         6.66
      0.2570         6.14
      0.2580         6.69
      0.2590         6.68
      0.2600         6.71
      0.2610         6.64
      0.2620         6.67
      0.2630         6.56
      0.2640         6.41
      0.2650         6.41
      0.2660         6.36
      0.2670         6.37
      0.2680         6.37
      0.2690         6.34
      0.2700         6.42
      0.2710         6.37
      0.2720         6.97
      0.2730         7.08
      0.2740         7.17
      0.2750         7.18
      0.2760         7.32
      0.2770         7.34
      0.2780         6.83
      0.2790         6.75
      0.2800         6.79
      0.2810         6.90
      0.2820         6.91
      0.2830         7.07
      0.2840         7.66
      0.2850         7.67
      0.2860         7.70
      0.2870         7.59
      0.2880         7.59
      0.2890         7.49
      0.2900         7.57
      0.2910         7.53
      0.2920         7.42
      0.2930         7.37
      0.2940         7.44
      0.2950         7.52
      0.2960         7.48
      0.2970         6.92
      0.2980         6.89
      0.2990         6.93
      0.3000         7.41
      0.3010         7.44
      0.3020         7.41
      0.3030         7.42
      0.3040         7.38
      0.3050         7.42
      0.3060         7.55
      0.3070         7.67
      0.3080         7.65
      0.3090         7.78
      0.3100         7.71
      0.3110         7.82
      0.3120         7.86
      0.3130         7.87
      0.3140         7.89
      0.3150         7.69
      0.3160         7.53
      0.3170         7.61
      0.3180         7.67
      0.3190         7.65
      0.3200         7.60
      0.3210         7.53
      0.3220         7.44
      0.3230         7.40
      0.3240         7.46
      0.3250         7.48
      0.3260         7.41
      0.3270         7.48
      0.3280         7.53
      0.3290         7.60
      0.3300         7.68
      0.3310         7.69
      0.3320         7.66
      0.3330         7.65
      0.3340         7.69
      0.3350         7.94
      0.3360         8.10
      0.3370         8.17
      0.3380         8.18
      0.3390         8.29
      0.3400         8.43
      0.3410         8.55
      0.3420         8.61
      0.3430         8.57
      0.3440         8.48
      0.3450         8.40
      0.3460         8.41
      0.3470         8.41
      0.3480         8.45
      0.3490         8.42
      0.3500         8.42
      0.3510         8.42
      0.3520         8.52
      0.3530         8.64
      0.3540         8.66
      0.3550         8.60
      0.3560         8.70
      0.3570         8.77
      0.3580         8.84
      0.3590         8.89
      0.3600         9.01
      0.3610         9.05
      0.3620         9.22
      0.3630         9.37
      0.3640         9.61
      0.3650         9.89
      0.3660         9.93
      0.3670         9.99
      0.3680        10.05
      0.3690        10.14
      0.3700        10.20
      0.3710        10.31
      0.3720        10.40
      0.3730        10.41
      0.3740        10.44
      0.3750        10.40
      0.3760        10.33
      0.3770        10.26
      0.3780        10.36
      0.3790        10.34
      0.3800        10.29
      0.3810        10.34
      0.3820        10.27
      0.3830        10.30
      0.3840        10.26
      0.3850        10.22
      0.3860        10.41
      0.3870        10.46
      0.3880        10.54
      0.3890        10.63
      0.3900        10.59
      0.3910        10.61
      0.3920        10.60
      0.3930        10.75
      0.3940        10.84
      0.3950        10.95
      0.3960        11.11
      0.3970        11.15
      0.3980        11.18
      0.3990        11.33
      0.4000        11.38
      0.4010        11.35
      0.4020        11.39
      0.4030        11.45
      0.4040        11.33
      0.4050        11.40
      0.4060        11.29
      0.4070        11.23
      0.4080        11.21
      0.4090        11.16
      0.4100        11.24
      0.4110        11.28
      0.4120        11.17
      0.4130        11.09
      0.4140        11.04
      0.4150        11.04
      0.4160        10.97
      0.4170        11.15
      0.4180        11.15
      0.4190        11.07
      0.4200        11.13
      0.4210        11.14
      0.4220        11.27
      0.4230        11.30
      0.4240        11.50
      0.4250        11.48
      0.4260        11.61
      0.4270        11.72
      0.4280        11.68
      0.4290        11.72
      0.4300        11.76
      0.4310        11.81
      0.4320        11.96
      0.4330        11.98
      0.4340        11.99
      0.4350        11.93
      0.4360        12.05
      0.4370        11.97
      0.4380        11.95
      0.4390        12.06
      0.4400        12.06
      0.4410        12.10
      0.4420        12.08
      0.4430        12.12
      0.4440        12.17
      0.4450        12.22
      0.4460        12.28
      0.4470        12.30
      0.4480        12.52
      0.4490        12.53
      0.4500        12.67
      0.4510        12.75
      0.4520        12.87
      0.4530        12.97
      0.4540        13.04
      0.4550        13.17
      0.4560        13.24
      0.4570        13.27
      0.4580        13.38
      0.4590        13.37
      0.4600        13.44
      0.4610        13.52
      0.4620        13.55
      0.4630        13.67
      0.4640        13.67
      0.4650        13.76
      0.4660        13.72
      0.4670        13.76
      0.4680        13.72
      0.4690        13.78
      0.4700        13.80
      0.4710        13.86
      0.4720        13.89
      0.4730        13.98
      0.4740        14.01
      0.4750        14.13
      0.4760        14.14
      0.4770        14.34
      0.4780        14.41
      0.4790        14.65
      0.4800        14.76
      0.4810        14.85
      0.4820        14.92
      0.4830        14.94
      0.4840        14.96
      0.4850        15.00
      0.4860        15.10
      0.4870        15.25
      0.4880        15.32
      0.4890        15.46
      0.4900        15.53
      0.4910        15.57
      0.4920        15.57
      0.4930        15.61
      0.4940        15.67
      0.4950        15.72
      0.4960        15.76
      0.4970        15.73
      0.4980        15.79
      0.4990        15.75
      0.5000        15.75
      0.5010        15.78
      0.5020        15.87
      0.5030        15.91
      0.5040        16.11
      0.5050        16.30
      0.5060        16.35
      0.5070        16.40
      0.5080        16.49
      0.5090        16.54
      0.5100        16.73
      0.5110        16.75
      0.5120        16.87
      0.5130        16.91
      0.5140        17.11
      0.5150        17.33
      0.5160        17.50
      0.5170        17.61
      0.5180        17.65
      0.5190        17.70
      0.5200        17.77
      0.5210        17.89
      0.5220        17.98
      0.5230        18.00
      0.5240        17.95
      0.5250        17.79
      0.5260        17.84
      0.5270        17.80
      0.5280        17.82
      0.5290        17.86
      0.5300        17.90
      0.5310        17.92
      0.5320        17.99
      0.5330        18.12
      0.5340        18.22
      0.5350        18.16
      0.5360        18.20
      0.5370        18.27
      0.5380        18.30
      0.5390        18.36
      0.5400        18.54
      0.5410        18.66
      0.5420        18.72
      0.5430        18.83
      0.5440        18.92
      0.5450        19.11
      0.5460        19.26
      0.5470        19.34
      0.5480        19.46
      0.5490        19.46
      0.5500        19.39
      0.5510        19.40
      0.5520        19.48
      0.5530        19.43
      0.5540        19.39
      0.5550        19.42
      0.5560        19.39
      0.5570        19.43
      0.5580        19.52
      0.5590        19.47
      0.5600        19.36
      0.5610        19.30
      0.5620        19.31
      0.5630        19.36
      0.5640        19.51
      0.5650        19.56
      0.5660        19.47
      0.5670        19.63
      0.5680        19.72
      0.5690        19.92
      0.5700        20.09
      0.5710        20.16
      0.5720        20.14
      0.5730        20.30
      0.5740        20.32
      0.5750        20.37
      0.5760        20.41
      0.5770        20.48
      0.5780        20.53
      0.5790        20.69
      0.5800        20.78
      0.5810        20.91
      0.5820        21.00
      0.5830        20.95
      0.5840        20.94
      0.5850        21.01
      0.5860        21.08
      0.5870        21.02
      0.5880        20.99
      0.5890        20.95
      0.5900        20.97
      0.5910        21.15
      0.5920        21.22
      0.5930        21.24
      0.5940        21.37
      0.5950        21.44
      0.5960        21.58
      0.5970        21.70
      0.5980        21.81
      0.5990        21.84
      0.6000        21.94
      0.6010        22.01
      0.6020        22.13
      0.6030        22.25
      0.6040        22.36
      0.6050        22.34
      0.6060        22.49
      0.6070        22.51
      0.6080        22.62
      0.6090        22.64
      0.6100        22.67
      0.6110        22.64
      0.6120        22.62
      0.6130        22.54
      0.6140        22.58
      0.6150        22.54
      0.6160        22.57
      0.6170        22.46
      0.6180        22.46
      0.6190        22.45
      0.6200        22.46
      0.6210        22.51
      0.6220        22.50
      0.6230        22.66
      0.6240        22.61
      0.6250        22.69
      0.6260        22.71
      0.6270        22.91
      0.6280        22.99
      0.6290        23.11
      0.6300        23.11
      0.6310        23.27
      0.6320        23.43
      0.6330        23.58
      0.6340        23.66
      0.6350        23.71
      0.6360        23.63
      0.6370        23.71
      0.6380        23.75
      0.6390        23.76
      0.6400        23.82
      0.6410        23.73
      0.6420        23.68
      0.6430        23.56
      0.6440        23.58
      0.6450        23.54
      0.6460        23.56
      0.6470        23.44
      0.6480        23.37
      0.6490        23.34
      0.6500        23.46
      0.6510        23.49
      0.6520        23.56
      0.6530        23.65
      0.6540        23.70
      0.6550        23.85
      0.6560        24.00
      0.6570        24.14
      0.6580        24.22
      0.6590        24.42
      0.6600        24.48
      0.6610        24.57
      0.6620        24.65
      0.6630        24.75
      0.6640        24.80
      0.6650        24.87
      0.6660        24.79
      0.6670        24.90
      0.6680        25.01
      0.6690        24.94
      0.6700        24.89
      0.6710        24.81
      0.6720        24.87
      0.6730        24.87
      0.6740        24.87
      0.6750        24.91
      0.6760        24.88
      0.6770        24.91
      0.6780        24.87
      0.6790        24.85
      0.6800        24.87
      0.6810        24.93
      0.6820        24.99
      0.6830        25.05
      0.6840        25.16
      0.6850        25.30
      0.6860        25.46
      0.6870        25.48
      0.6880        25.64
      0.6890        25.74
      0.6900        25.86
      0.6910        25.89
      0.6920        25.90
      0.6930        26.00
      0.6940        25.98
      0.6950        26.02
      0.6960        26.06
      0.6970        25.96
      0.6980        25.98
      0.6990        25.97
      0.7000        26.01
      0.7010        26.03
      0.7020        26.10
      0.7030        26.19
      0.7040        26.22
      0.7050        26.23
      0.7060        26.37
      0.7070        26.52
      0.7080        26.52
      0.7090        26.56
      0.7100        26.61
      0.7110        26.70
      0.7120        26.68
      0.7130        26.65
      0.7140        26.85
      0.7150        26.90
      0.7160        27.01
      0.7170        27.09
      0.7180        27.22
      0.7190        27.41
      0.7200        27.53
      0.7210        27.63
      0.7220        27.65
      0.7230        27.65
      0.7240        27.68
      0.7250        27.68
      0.7260        27.64
      0.7270        27.57
      0.7280        27.53
      0.7290        27.68
      0.7300        27.72
      0.7310        27.77
      0.7320        27.84
      0.7330        27.92
      0.7340        27.85
      0.7350        27.83
      0.7360        27.92
      0.7370        27.99
      0.7380        28.08
      0.7390        27.98
      0.7400        28.03
      0.7410        28.11
      0.7420        28.11
      0.7430        28.25
      0.7440        28.33
      0.7450        28.44
      0.7460        28.52
      0.7470        28.59
      0.7480        28.73
      0.7490        28.73
      0.7500        28.69
      0.7510        28.88
      0.7520        29.05
      0.7530        28.99
      0.7540        29.06
      0.7550        29.03
      0.7560        29.05
      0.7570        29.14
      0.7580        29.14
      0.7590        29.24
      0.7600        29.25
      0.7610        29.22
      0.7620        29.36
      0.7630        29.29
      0.7640        29.35
      0.7650        29.44
      0.7660        29.47
      0.7670        29.60
