        Time   Palpation Force
      0.0000         1.00
      0.0010         1.00
      0.0020         1.09
      0.0030         1.49
      0.0040         1.88
      0.0050         2.20
      0.0060         2.59
      0.0070         3.00
      0.0080         3.34
      0.0090         3.69
      0.0100         4.00
      0.0110         4.38
      0.0120         4.73
      0.0130         5.07
      0.0140         5.45
      0.0150         5.85
      0.0160         6.23
      0.0170         6.61
      0.0180         7.01
      0.0190         7.41
      0.0200         7.47
      0.0210         7.58
      0.0220         7.56
      0.0230         7.51
      0.0240         7.52
      0.0250         7.59
      0.0260         7.60
      0.0270         7.56
      0.0280         7.58
      0.0290         7.64
      0.0300         7.72
      0.0310         7.68
      0.0320         7.76
      0.0330         7.75
      0.0340         7.70
      0.0350         7.64
      0.0360         7.66
      0.0370         7.62
      0.0380         7.62
      0.0390         7.60
      0.0400         7.52
      0.0410         7.40
      0.0420         7.40
      0.0430         7.46
      0.0440         7.45
      0.0450         7.41
      0.0460         7.37
      0.0470         7.41
      0.0480         7.42
      0.0490         7.42
      0.0500         7.41
      0.0510         7.42
      0.0520         7.39
      0.0530         7.45
      0.0540         7.57
      0.0550         7.66
      0.0560         7.70
      0.0570         7.80
      0.0580         7.82
      0.0590         7.81
      0.0600         7.80
      0.0610         7.84
      0.0620         7.97
      0.0630         7.95
      0.0640         7.97
      0.0650         8.00
      0.0660         7.92
      0.0670         7.91
      0.0680         7.89
      0.0690         7.84
      0.0700         7.87
      0.0710         7.81
      0.0720         7.83
      0.0730         7.81
      0.0740         7.79
      0.0750         7.76
      0.0760         7.64
      0.0770         7.61
      0.0780         7.63
      0.0790         7.69
      0.0800         7.73
      0.0810         7.75
      0.0820         7.63
      0.0830         7.71
      0.0840         7.65
      0.0850         7.65
      0.0860         7.77
      0.0870         7.75
      0.0880         7.75
      0.0890         7.76
      0.0900         7.76
      0.0910         7.81
      0.0920         7.80
      0.0930         7.69
      0.0940         7.64
      0.0950         7.55
      0.0960         7.64
      0.0970         7.57
      0.0980         7.43
      0.0990         7.36
      0.1000         7.35
      0.1010         7.32
      0.1020         7.36
      0.1030         7.28
      0.1040         7.32
      0.1050         7.33
      0.1060         7.29
      0.1070         7.31
      0.1080         7.32
      0.1090         7.35
      0.1100         7.45
      0.1110         7.45
      0.1120         7.40
      0.1130         7.53
      0.1140         7.51
      0.1150         7.57
      0.1160         7.47
      0.1170         7.47
      0.1180         7.48
      0.1190         7.44
      0.1200         7.41
      0.1210         7.43
      0.1220         7.40
      0.1230         7.37
      0.1240         7.33
      0.1250         7.33
      0.1260         7.29
      0.1270         7.25
      0.1280         7.29
      0.1290         7.27
      0.1300         7.15
      0.1310         7.15
      0.1320         7.21
      0.1330         7.28
      0.1340         7.33
      0.1350         7.36
      0.1360         7.47
      0.1370         7.53
      0.1380         7.62
      0.1390         7.71
      0.1400         7.79
      0.1410         7.74
      0.1420         7.71
      0.1430         7.70
      0.1440         7.72
      0.1450         7.70
      0.1460         7.76
      0.1470         7.86
      0.1480         7.80
      0.1490         7.74
      0.1500         7.71
      0.1510         7.68
      0.1520         7.66
      0.1530         7.59
      0.1540         7.58
      0.1550         7.55
      0.1560         7.53
      0.1570         7.50
      0.1580         7.49
      0.1590         7.42
      0.1600         7.39
      0.1610         7.45
      0.1620         7.46
      0.1630         7.49
      0.1640         7.49
      0.1650         7.53
      0.1660         7.53
      0.1670         7.43
      0.1680         7.46
      0.1690         7.50
      0.1700         7.50
      0.1710         7.61
      0.1720         7.61
      0.1730         7.62
      0.1740         7.60
      0.1750         7.54
      0.1760         7.46
      0.1770         7.42
      0.1780         7.40
      0.1790         7.37
      0.1800         7.33
      0.1810         7.29
      0.1820         7.25
      0.1830         7.24
      0.1840         7.22
      0.1850         7.17
      0.1860         7.17
      0.1870         7.20
      0.1880         7.21
      0.1890         7.24
      0.1900         7.28
      0.1910         7.22
      0.1920         7.22
      0.1930         7.24
      0.1940         7.24
      0.1950         7.33
      0.1960         7.37
      0.1970         7.34
      0.1980         7.41
      0.1990         7.41
      0.2000         7.41
      0.2010         7.37
      0.2020         7.38
      0.2030         7.41
      0.2040         7.36
      0.2050         7.41
      0.2060         7.28
      0.2070         7.21
      0.2080         7.14
      0.2090         7.14
      0.2100         7.14
      0.2110         7.14
      0.2120         7.06
      0.2130         6.96
      0.2140         6.97
      0.2150         6.89
      0.2160         6.92
      0.2170         6.96
      0.2180         6.90
      0.2190         7.00
      0.2200         7.01
      0.2210         7.11
      0.2220         7.21
      0.2230         7.15
      0.2240         7.17
      0.2250         7.15
      0.2260         7.23
      0.2270         7.35
      0.2280         7.44
      0.2290         7.43
      0.2300         7.35
      0.2310         7.32
      0.2320         7.35
      0.2330         7.43
      0.2340         7.43
      0.2350         7.40
      0.2360         7.36
      0.2370         7.37
      0.2380         7.38
      0.2390         7.39
      0.2400         7.38
      0.2410         7.34
      0.2420         7.26
      0.2430         7.30
      0.2440         7.31
      0.2450         7.30
      0.2460         7.30
      0.2470         7.21
      0.2480         7.19
      0.2490         7.22
      0.2500         7.26
      0.2510         7.32
      0.2520         7.36
      0.2530         7.40
      0.2540         7.41
      0.2550         7.49
      0.2560         7.60
      0.2570         7.58
      0.2580         7.61
      0.2590         7.56
      0.2600         7.58
      0.2610         7.61
      0.2620         7.58
      0.2630         7.64
      0.2640         7.65
      0.2650         7.69
      0.2660         7.66
      0.2670         7.70
      0.2680         7.65
      0.2690         7.66
      0.2700         7.61
      0.2710         7.64
      0.2720         7.64
      0.2730         7.54
      0.2740         7.61
      0.2750         7.60
      0.2760         7.49
      0.2770         7.56
      0.2780         7.49
      0.2790         7.52
      0.2800         7.54
      0.2810         7.52
      0.2820         7.54
      0.2830         7.50
      0.2840         7.53
      0.2850         7.56
      0.2860         7.64
      0.2870         7.64
      0.2880         7.67
      0.2890         7.67
      0.2900         7.73
      0.2910         7.68
      0.2920         7.73
      0.2930         7.79
      0.2940         7.75
      0.2950         7.71
      0.2960         7.70
      0.2970         7.70
      0.2980         7.70
      0.2990         7.59
      0.3000         7.58
      0.3010         7.55
      0.3020         7.52
      0.3030         7.58
      0.3040         7.55
      0.3050         7.54
      0.3060         7.56
      0.3070         7.55
      0.3080         7.52
      0.3090         7.53
      0.3100         7.49
      0.3110         7.49
      0.3120         7.46
      0.3130         7.45
      0.3140         7.42
      0.3150         7.41
      0.3160         7.49
      0.3170         7.45
      0.3180         7.46
      0.3190         7.54
      0.3200         7.55
      0.3210         7.58
      0.3220         7.62
      0.3230         7.65
      0.3240         7.66
      0.3250         7.65
      0.3260         7.58
      0.3270         7.59
      0.3280         7.62
      0.3290         7.58
      0.3300         7.66
      0.3310         7.63
      0.3320         7.61
      0.3330         7.63
      0.3340         7.65
      0.3350         7.70
      0.3360         7.69
      0.3370         7.75
      0.3380         7.82
      0.3390         7.79
      0.3400         7.74
      0.3410         7.78
      0.3420         7.82
      0.3430         7.74
      0.3440         7.69
      0.3450         7.69
      0.3460         7.69
      0.3470         7.70
      0.3480         7.63
      0.3490         7.65
      0.3500         7.55
      0.3510         7.54
      0.3520         7.51
      0.3530         7.50
      0.3540         7.46
      0.3550         7.44
      0.3560         7.43
      0.3570         7.38
      0.3580         7.35
      0.3590         7.36
      0.3600         7.36
      0.3610         7.31
      0.3620         7.26
      0.3630         7.29
      0.3640         7.33
      0.3650         7.31
      0.3660         7.34
      0.3670         7.31
      0.3680         7.35
      0.3690         7.45
      0.3700         7.55
      0.3710         7.60
      0.3720         7.70
      0.3730         7.70
      0.3740         7.72
      0.3750         7.76
      0.3760         7.88
      0.3770         7.85
      0.3780         7.85
      0.3790         7.85
      0.3800         7.88
      0.3810         7.91
      0.3820         7.89
      0.3830         7.83
      0.3840         7.81
      0.3850         7.75
      0.3860         7.72
      0.3870         7.75
      0.3880         7.76
      0.3890         7.65
      0.3900         7.59
      0.3910         7.57
      0.3920         7.45
      0.3930         7.41
      0.3940         7.41
      0.3950         7.36
      0.3960         7.25
      0.3970         7.24
      0.3980         7.23
      0.3990         7.17
      0.4000         7.12
      0.4010         7.13
      0.4020         7.15
      0.4030         7.13
      0.4040         7.13
      0.4050         7.21
      0.4060         7.23
      0.4070         7.21
      0.4080         7.23
      0.4090         7.23
      0.4100         7.24
      0.4110         7.24
      0.4120         7.28
      0.4130         7.27
      0.4140         7.23
      0.4150         7.25
      0.4160         7.24
      0.4170         7.23
      0.4180         7.19
      0.4190         7.20
      0.4200         7.26
      0.4210         7.30
      0.4220         7.32
      0.4230         7.31
      0.4240         7.34
      0.4250         7.28
      0.4260         7.26
      0.4270         7.30
      0.4280         7.26
      0.4290         7.28
      0.4300         7.24
      0.4310         7.27
      0.4320         7.35
      0.4330         7.39
      0.4340         7.55
      0.4350         7.58
      0.4360         7.65
      0.4370         7.71
      0.4380         7.71
      0.4390         7.71
      0.4400         7.69
      0.4410         7.65
      0.4420         7.67
      0.4430         7.80
      0.4440         7.71
      0.4450         7.78
      0.4460         7.82
      0.4470         7.84
      0.4480         7.90
      0.4490         7.86
      0.4500         7.96
      0.4510         7.87
      0.4520         7.82
      0.4530         7.88
      0.4540         7.69
      0.4550         7.59
      0.4560         7.54
      0.4570         7.61
      0.4580         7.65
      0.4590         7.69
      0.4600         7.71
      0.4610         7.75
      0.4620         7.73
      0.4630         7.74
      0.4640         7.81
      0.4650         7.77
      0.4660         7.81
      0.4670         7.77
      0.4680         7.74
      0.4690         7.77
      0.4700         7.66
      0.4710         7.69
      0.4720         7.66
      0.4730         7.57
      0.4740         7.58
      0.4750         7.64
      0.4760         7.68
      0.4770         7.52
      0.4780         7.53
      0.4790         7.49
      0.4800         7.40
      0.4810         7.33
      0.4820         7.33
      0.4830         7.27
      0.4840         7.25
      0.4850         7.21
      0.4860         7.21
      0.4870         7.17
      0.4880         7.20
      0.4890         7.27
      0.4900         7.31
      0.4910         7.29
      0.4920         7.37
      0.4930         7.48
      0.4940         7.53
      0.4950         7.57
      0.4960         7.51
      0.4970         7.59
      0.4980         7.59
      0.4990         7.59
      0.5000         7.72
      0.5010         7.74
      0.5020         7.68
      0.5030         7.71
      0.5040         7.66
      0.5050         7.66
      0.5060         7.59
      0.5070         7.63
      0.5080         7.63
      0.5090         7.58
      0.5100         7.56
      0.5110         7.60
      0.5120         7.52
      0.5130         7.43
      0.5140         7.46
      0.5150         7.39
      0.5160         7.39
      0.5170         7.39
      0.5180         7.40
      0.5190         7.46
      0.5200         7.41
      0.5210         7.43
      0.5220         7.47
      0.5230         7.43
      0.5240         7.53
      0.5250         7.56
      0.5260         7.57
      0.5270         7.59
      0.5280         7.56
      0.5290         7.55
      0.5300         7.61
      0.5310         7.59
      0.5320         7.57
      0.5330         7.56
      0.5340         7.55
      0.5350         7.57
      0.5360         7.52
      0.5370         7.52
      0.5380         7.45
      0.5390         7.37
      0.5400         7.39
      0.5410         7.43
      0.5420         7.38
      0.5430         7.44
      0.5440         7.42
      0.5450         7.46
      0.5460         7.48
      0.5470         7.51
      0.5480         7.52
      0.5490         7.54
      0.5500         7.54
      0.5510         7.54
      0.5520         7.55
      0.5530         7.61
      0.5540         7.59
      0.5550         7.63
      0.5560         7.71
      0.5570         7.74
      0.5580         7.78
      0.5590         7.85
      0.5600         7.83
      0.5610         7.73
      0.5620         7.81
      0.5630         7.75
      0.5640         7.70
      0.5650         7.69
      0.5660         7.59
      0.5670         7.52
      0.5680         7.51
      0.5690         7.52
      0.5700         7.48
      0.5710         7.48
      0.5720         7.44
      0.5730         7.50
      0.5740         7.53
      0.5750         7.54
      0.5760         7.54
      0.5770         7.53
      0.5780         7.55
      0.5790         7.57
      0.5800         7.62
      0.5810         7.70
      0.5820         7.72
      0.5830         7.80
      0.5840         7.85
      0.5850         7.84
      0.5860         7.90
      0.5870         7.96
      0.5880         7.94
      0.5890         7.93
      0.5900         7.92
      0.5910         8.01
      0.5920         8.05
      0.5930         7.97
      0.5940         7.90
      0.5950         7.88
      0.5960         7.88
      0.5970         7.88
      0.5980         7.87
      0.5990         7.88
      0.6000         7.76
      0.6010         7.74
      0.6020         7.76
      0.6030         7.73
      0.6040         7.75
      0.6050         7.76
      0.6060         7.79
      0.6070         7.76
      0.6080         7.77
      0.6090         7.80
      0.6100         7.85
      0.6110         7.80
      0.6120         7.85
      0.6130         7.87
      0.6140         7.96
      0.6150         7.91
      0.6160         7.91
      0.6170         7.85
      0.6180         7.88
      0.6190         7.85
      0.6200         7.89
      0.6210         7.91
      0.6220         7.83
      0.6230         7.83
      0.6240         7.78
      0.6250         7.79
      0.6260         7.74
      0.6270         7.67
      0.6280         7.66
      0.6290         7.62
      0.6300         7.59
      0.6310         7.54
      0.6320         7.54
      0.6330         7.63
      0.6340         7.62
      0.6350         7.67
      0.6360         7.64
      0.6370         7.67
      0.6380         7.67
      0.6390         7.70
      0.6400         7.67
      0.6410         7.71
      0.6420         7.79
      0.6430         7.72
      0.6440         7.74
      0.6450         7.72
      0.6460         7.71
      0.6470         7.71
      0.6480         7.72
      0.6490         7.76
      0.6500         7.74
      0.6510         7.72
      0.6520         7.70
      0.6530         7.63
      0.6540         7.62
      0.6550         7.48
      0.6560         7.55
      0.6570         7.58
      0.6580         7.50
      0.6590         7.46
      0.6600         7.48
      0.6610         7.44
      0.6620         7.44
      0.6630         7.48
      0.6640         7.51
      0.6650         7.55
      0.6660         7.56
      0.6670         7.66
      0.6680         7.66
      0.6690         7.62
      0.6700         7.68
      0.6710         7.75
      0.6720         7.81
      0.6730         7.78
      0.6740         7.71
      0.6750         7.78
      0.6760         7.70
      0.6770         7.70
      0.6780         7.75
      0.6790         7.72
      0.6800         7.75
      0.6810         7.67
      0.6820         7.56
      0.6830         7.52
      0.6840         7.59
      0.6850         7.54
      0.6860         7.54
      0.6870         7.47
      0.6880         7.53
      0.6890         7.61
      0.6900         7.59
      0.6910         7.69
      0.6920         7.63
      0.6930         7.62
      0.6940         7.76
      0.6950         7.85
      0.6960         7.93
      0.6970         8.00
      0.6980         8.00
      0.6990         8.09
      0.7000         8.11
      0.7010         8.17
      0.7020         8.31
      0.7030         8.36
      0.7040         8.32
      0.7050         8.36
      0.7060         8.39
      0.7070         8.40
      0.7080         8.27
      0.7090         8.20
      0.7100         8.16
      0.7110         8.09
      0.7120         8.05
      0.7130         8.07
      0.7140         7.99
      0.7150         8.00
      0.7160         7.93
      0.7170         7.89
      0.7180         7.95
      0.7190         7.87
      0.7200         7.94
      0.7210         7.96
      0.7220         7.88
      0.7230         7.87
      0.7240         7.80
      0.7250         7.79
      0.7260         7.84
      0.7270         7.87
      0.7280         7.96
      0.7290         8.00
      0.7300         8.00
      0.7310         7.95
      0.7320         7.96
      0.7330         7.96
      0.7340         7.98
      0.7350         7.89
      0.7360         7.91
      0.7370         7.85
      0.7380         7.77
      0.7390         7.73
      0.7400         7.67
      0.7410         7.65
      0.7420         7.68
      0.7430         7.72
      0.7440         7.74
      0.7450         7.74
      0.7460         7.75
      0.7470         7.80
      0.7480         7.83
      0.7490         7.74
      0.7500         7.71
      0.7510         7.78
      0.7520         7.78
      0.7530         7.79
      0.7540         7.76
      0.7550         7.77
      0.7560         7.80
      0.7570         7.77
      0.7580         7.81
      0.7590         7.89
      0.7600         7.91
      0.7610         7.84
      0.7620         7.79
      0.7630         7.76
      0.7640         7.70
      0.7650         7.62
      0.7660         7.58
      0.7670         7.49
