        Time   Palpation Force
      0.0000         1.00
      0.0010         1.00
      0.0020         1.22
      0.0030         1.58
      0.0040         1.98
      0.0050         2.38
      0.0060         2.80
      0.0070         3.21
      0.0080         3.64
      0.0090         4.06
      0.0100         4.44
      0.0110         4.83
      0.0120         5.27
      0.0130         5.67
      0.0140         6.04
      0.0150         6.44
      0.0160         6.87
      0.0170         7.25
      0.0180         7.62
      0.0190         8.09
      0.0200         8.16
      0.0210         8.18
      0.0220         8.13
      0.0230         8.18
      0.0240         8.24
      0.0250         8.24
      0.0260         8.21
      0.0270         8.18
      0.0280         8.17
      0.0290         8.03
      0.0300         8.06
      0.0310         8.03
      0.0320         8.01
      0.0330         8.01
      0.0340         8.02
      0.0350         7.99
      0.0360         8.10
      0.0370         8.14
      0.0380         8.23
      0.0390         8.18
      0.0400         8.10
      0.0410         8.07
      0.0420         8.10
      0.0430         8.09
      0.0440         8.01
      0.0450         8.10
      0.0460         8.14
      0.0470         8.15
      0.0480         8.13
      0.0490         8.26
      0.0500         8.23
      0.0510         8.30
      0.0520         8.30
      0.0530         8.31
      0.0540         8.26
      0.0550         8.34
      0.0560         8.24
      0.0570         8.17
      0.0580         8.08
      0.0590         8.02
      0.0600         8.05
      0.0610         8.09
      0.0620         8.06
      0.0630         8.02
      0.0640         8.10
      0.0650         8.00
      0.0660         7.92
      0.0670         7.92
      0.0680         7.96
      0.0690         7.98
      0.0700         7.97
      0.0710         8.02
      0.0720         8.08
      0.0730         8.06
      0.0740         8.12
      0.0750         8.13
      0.0760         8.10
      0.0770         8.21
      0.0780         8.26
      0.0790         8.33
      0.0800         8.30
      0.0810         8.26
      0.0820         8.26
      0.0830         8.32
      0.0840         8.30
      0.0850         8.28
      0.0860         8.29
      0.0870         8.25
      0.0880         8.18
      0.0890         8.13
      0.0900         8.16
      0.0910         8.09
      0.0920         8.16
      0.0930         8.21
      0.0940         8.73
      0.0950         8.77
      0.0960         8.72
      0.0970         8.18
      0.0980         8.18
      0.0990         8.18
      0.1000         8.30
      0.1010         8.33
      0.1020         8.27
      0.1030         8.27
      0.1040         8.29
      0.1050         8.37
      0.1060         8.41
      0.1070         8.54
      0.1080         8.58
      0.1090         8.59
      0.1100         8.66
      0.1110         8.65
      0.1120         8.55
      0.1130         8.54
      0.1140         8.49
      0.1150         8.39
      0.1160         8.42
      0.1170         8.39
      0.1180         8.41
      0.1190         8.37
      0.1200         8.34
      0.1210         8.34
      0.1220         8.37
      0.1230         8.33
      0.1240         8.26
      0.1250         8.22
      0.1260         8.26
      0.1270         8.22
      0.1280         8.26
      0.1290         8.27
      0.1300         8.29
      0.1310         8.31
      0.1320         8.30
      0.1330         8.23
      0.1340         8.34
      0.1350         8.35
      0.1360         8.38
      0.1370         8.43
      0.1380         8.47
      0.1390         8.53
      0.1400         8.49
      0.1410         8.49
      0.1420         8.50
      0.1430         8.54
      0.1440         8.53
      0.1450         8.47
      0.1460         8.42
      0.1470         8.31
      0.1480         8.26
      0.1490         8.21
      0.1500         8.17
      0.1510         8.17
      0.1520         8.15
      0.1530         8.19
      0.1540         8.18
      0.1550         8.17
      0.1560         8.19
      0.1570         8.19
      0.1580         8.13
      0.1590         8.07
      0.1600         8.07
      0.1610         8.13
      0.1620         8.22
      0.1630         8.18
      0.1640         8.25
      0.1650         8.31
      0.1660         8.35
      0.1670         8.42
      0.1680         8.45
      0.1690         8.49
      0.1700         8.47
      0.1710         8.46
      0.1720         8.45
      0.1730         8.41
      0.1740         8.35
      0.1750         8.35
      0.1760         8.29
      0.1770         8.23
      0.1780         8.22
      0.1790         8.23
      0.1800         8.25
      0.1810         8.13
      0.1820         8.11
      0.1830         8.11
      0.1840         8.10
      0.1850         8.10
      0.1860         8.06
      0.1870         8.07
      0.1880         8.11
      0.1890         8.14
      0.1900         8.13
      0.1910         8.10
      0.1920         8.14
      0.1930         8.17
      0.1940         8.17
      0.1950         8.22
      0.1960         8.22
      0.1970         8.22
      0.1980         8.25
      0.1990         8.24
      0.2000         8.26
      0.2010         8.32
      0.2020         8.28
      0.2030         8.28
      0.2040         8.30
      0.2050         8.31
      0.2060         8.26
      0.2070         8.27
      0.2080         8.26
      0.2090         8.18
      0.2100         8.16
      0.2110         8.15
      0.2120         8.14
      0.2130         8.11
      0.2140         8.12
      0.2150         8.08
      0.2160         8.08
      0.2170         8.11
      0.2180         8.07
      0.2190         8.10
      0.2200         8.03
      0.2210         8.07
      0.2220         8.03
      0.2230         8.14
      0.2240         8.17
      0.2250         8.22
      0.2260         8.29
      0.2270         8.26
      0.2280         8.25
      0.2290         8.26
      0.2300         8.26
      0.2310         8.27
      0.2320         8.22
      0.2330         8.27
      0.2340         8.23
      0.2350         8.19
      0.2360         8.14
      0.2370         8.10
      0.2380         8.05
      0.2390         8.03
      0.2400         8.03
      0.2410         7.95
      0.2420         8.03
      0.2430         7.95
      0.2440         7.89
      0.2450         7.82
      0.2460         7.82
      0.2470         7.85
      0.2480         7.86
      0.2490         7.91
      0.2500         7.97
      0.2510         8.01
      0.2520         8.06
      0.2530         8.13
      0.2540         8.11
      0.2550         8.10
      0.2560         8.23
      0.2570         8.19
      0.2580         8.29
      0.2590         8.31
      0.2600         8.31
      0.2610         8.37
      0.2620         8.31
      0.2630         8.29
      0.2640         8.27
      0.2650         8.29
      0.2660         8.31
      0.2670         8.31
      0.2680         8.29
      0.2690         8.29
      0.2700         8.26
      0.2710         8.15
      0.2720         8.17
      0.2730         8.03
      0.2740         8.10
      0.2750         8.18
      0.2760         8.10
      0.2770         8.18
      0.2780         8.22
      0.2790         8.19
      0.2800         8.19
      0.2810         8.23
      0.2820         8.15
      0.2830         8.17
      0.2840         8.17
      0.2850         8.15
      0.2860         8.14
      0.2870         8.13
      0.2880         8.10
      0.2890         8.07
      0.2900         8.02
      0.2910         8.07
      0.2920         8.01
      0.2930         8.02
      0.2940         8.03
      0.2950         7.95
      0.2960         7.99
      0.2970         7.94
      0.2980         7.90
      0.2990         7.91
      0.3000         7.97
      0.3010         7.99
      0.3020         8.02
      0.3030         8.05
      0.3040         8.07
      0.3050         8.11
      0.3060         8.09
      0.3070         8.09
      0.3080         8.13
      0.3090         8.17
      0.3100         8.25
      0.3110         8.29
      0.3120         8.27
      0.3130         8.30
      0.3140         8.25
      0.3150         8.30
      0.3160         8.28
      0.3170         8.34
      0.3180         8.31
      0.3190         8.30
      0.3200         8.28
      0.3210         8.15
      0.3220         8.20
      0.3230         8.20
      0.3240         8.19
      0.3250         8.11
      0.3260         8.09
      0.3270         8.08
      0.3280         8.05
      0.3290         7.95
      0.3300         7.97
      0.3310         7.97
      0.3320         7.97
      0.3330         7.96
      0.3340         7.93
      0.3350         7.97
      0.3360         7.95
      0.3370         7.91
      0.3380         7.95
      0.3390         8.00
      0.3400         8.03
      0.3410         8.15
      0.3420         8.18
      0.3430         8.16
      0.3440         8.16
      0.3450         8.20
      0.3460         8.24
      0.3470         8.27
      0.3480         8.24
      0.3490         8.34
      0.3500         8.19
      0.3510         8.11
      0.3520         8.12
      0.3530         8.12
      0.3540         8.16
      0.3550         8.10
      0.3560         8.08
      0.3570         8.07
      0.3580         8.02
      0.3590         7.95
      0.3600         7.94
      0.3610         7.88
      0.3620         7.83
      0.3630         7.92
      0.3640         7.87
      0.3650         7.92
      0.3660         7.90
      0.3670         7.93
      0.3680         7.95
      0.3690         8.02
      0.3700         8.13
      0.3710         8.15
      0.3720         8.25
      0.3730         8.25
      0.3740         8.29
      0.3750         8.33
      0.3760         8.35
      0.3770         8.37
      0.3780         8.38
      0.3790         8.39
      0.3800         8.39
      0.3810         8.31
      0.3820         8.34
      0.3830         8.30
      0.3840         8.31
      0.3850         8.26
      0.3860         8.29
      0.3870         8.19
      0.3880         8.22
      0.3890         8.12
      0.3900         8.11
      0.3910         8.18
      0.3920         8.06
      0.3930         8.08
      0.3940         8.06
      0.3950         8.03
      0.3960         8.06
      0.3970         8.11
      0.3980         8.16
      0.3990         8.23
      0.4000         8.23
      0.4010         8.30
      0.4020         8.30
      0.4030         8.20
      0.4040         8.20
      0.4050         8.23
      0.4060         8.20
      0.4070         8.24
      0.4080         8.20
      0.4090         8.21
      0.4100         8.11
      0.4110         8.08
      0.4120         8.13
      0.4130         8.15
      0.4140         8.12
      0.4150         8.13
      0.4160         8.07
      0.4170         8.04
      0.4180         7.99
      0.4190         7.95
      0.4200         7.91
      0.4210         7.89
      0.4220         7.94
      0.4230         8.02
      0.4240         8.10
      0.4250         8.08
      0.4260         8.14
      0.4270         8.18
      0.4280         8.19
      0.4290         8.23
      0.4300         8.28
      0.4310         8.26
      0.4320         8.29
      0.4330         8.22
      0.4340         8.31
      0.4350         8.26
      0.4360         8.26
      0.4370         8.27
      0.4380         8.27
      0.4390         8.15
      0.4400         8.14
      0.4410         8.13
      0.4420         8.10
      0.4430         8.10
      0.4440         8.10
      0.4450         8.07
      0.4460         8.05
      0.4470         8.03
      0.4480         7.97
      0.4490         7.94
      0.4500         7.99
      0.4510         8.02
      0.4520         8.02
      0.4530         8.06
      0.4540         8.09
      0.4550         8.10
      0.4560         8.15
      0.4570         8.15
      0.4580         8.17
      0.4590         8.30
      0.4600         8.33
      0.4610         8.31
      0.4620         8.26
      0.4630         8.23
      0.4640         8.21
      0.4650         8.23
      0.4660         8.20
      0.4670         8.10
      0.4680         8.08
      0.4690         8.04
      0.4700         8.02
      0.4710         7.94
      0.4720         7.91
      0.4730         7.91
      0.4740         7.86
      0.4750         7.88
      0.4760         7.84
      0.4770         7.79
      0.4780         7.75
      0.4790         7.67
      0.4800         7.72
      0.4810         7.80
      0.4820         7.83
      0.4830         7.83
      0.4840         7.86
      0.4850         7.86
      0.4860         7.98
      0.4870         8.10
      0.4880         8.17
      0.4890         8.21
      0.4900         8.23
      0.4910         8.27
      0.4920         8.27
      0.4930         8.33
      0.4940         8.30
      0.4950         8.33
      0.4960         8.30
      0.4970         8.31
      0.4980         8.31
      0.4990         8.34
      0.5000         8.33
      0.5010         8.23
      0.5020         8.19
      0.5030         8.19
      0.5040         8.17
      0.5050         8.09
      0.5060         7.93
      0.5070         7.85
      0.5080         7.98
      0.5090         7.99
      0.5100         7.99
      0.5110         8.06
      0.5120         8.06
      0.5130         8.06
      0.5140         8.10
      0.5150         8.09
      0.5160         8.18
      0.5170         8.20
      0.5180         8.26
      0.5190         8.25
      0.5200         8.18
      0.5210         8.22
      0.5220         8.15
      0.5230         8.18
      0.5240         8.14
      0.5250         8.19
      0.5260         8.21
      0.5270         8.26
      0.5280         8.11
      0.5290         8.07
      0.5300         8.07
      0.5310         8.05
      0.5320         8.05
      0.5330         7.98
      0.5340         7.91
      0.5350         7.89
      0.5360         7.86
      0.5370         7.89
      0.5380         7.89
      0.5390         7.97
      0.5400         8.05
      0.5410         8.08
      0.5420         8.20
      0.5430         8.14
      0.5440         8.24
      0.5450         8.24
      0.5460         8.33
      0.5470         8.37
      0.5480         8.44
      0.5490         8.44
      0.5500         8.44
      0.5510         8.42
      0.5520         8.45
      0.5530         8.42
      0.5540         8.40
      0.5550         8.33
      0.5560         8.28
      0.5570         8.24
      0.5580         8.18
      0.5590         8.11
      0.5600         8.13
      0.5610         8.05
      0.5620         8.09
      0.5630         8.10
      0.5640         8.07
      0.5650         8.14
      0.5660         8.06
      0.5670         8.05
      0.5680         7.98
      0.5690         8.01
      0.5700         7.98
      0.5710         8.02
      0.5720         8.03
      0.5730         8.09
      0.5740         8.15
      0.5750         8.22
      0.5760         8.31
      0.5770         8.32
      0.5780         8.35
      0.5790         8.34
      0.5800         8.22
      0.5810         8.28
      0.5820         8.20
      0.5830         8.20
      0.5840         8.18
      0.5850         8.05
      0.5860         8.04
      0.5870         8.03
      0.5880         8.04
      0.5890         8.01
      0.5900         8.11
      0.5910         8.08
      0.5920         7.99
      0.5930         8.00
      0.5940         8.03
      0.5950         8.07
      0.5960         7.99
      0.5970         8.07
      0.5980         8.11
      0.5990         8.18
      0.6000         8.24
      0.6010         8.24
      0.6020         8.28
      0.6030         8.34
      0.6040         8.35
      0.6050         8.42
      0.6060         8.52
      0.6070         8.43
      0.6080         8.44
      0.6090         8.43
      0.6100         8.31
      0.6110         8.28
      0.6120         8.39
      0.6130         8.35
      0.6140         8.24
      0.6150         8.19
      0.6160         8.24
      0.6170         8.17
      0.6180         8.15
      0.6190         8.16
      0.6200         8.17
      0.6210         8.20
      0.6220         8.17
      0.6230         8.17
      0.6240         8.17
      0.6250         8.15
      0.6260         8.04
      0.6270         8.16
      0.6280         8.16
      0.6290         8.17
      0.6300         8.24
      0.6310         8.31
      0.6320         8.29
      0.6330         8.36
      0.6340         8.38
      0.6350         8.43
      0.6360         8.48
      0.6370         8.51
      0.6380         8.58
      0.6390         8.51
      0.6400         8.47
      0.6410         8.46
      0.6420         8.44
      0.6430         8.43
      0.6440         8.43
      0.6450         8.44
      0.6460         8.45
      0.6470         8.35
      0.6480         8.26
      0.6490         8.26
      0.6500         8.20
      0.6510         8.20
      0.6520         8.23
      0.6530         8.18
      0.6540         8.28
      0.6550         8.26
      0.6560         8.24
      0.6570         8.20
      0.6580         8.11
      0.6590         8.08
      0.6600         8.12
      0.6610         8.12
      0.6620         8.10
      0.6630         8.07
      0.6640         8.04
      0.6650         8.06
      0.6660         8.14
      0.6670         8.16
      0.6680         8.26
      0.6690         8.30
      0.6700         8.35
      0.6710         8.31
      0.6720         8.20
      0.6730         8.18
      0.6740         8.12
      0.6750         8.11
      0.6760         8.03
      0.6770         8.02
      0.6780         7.96
      0.6790         7.95
      0.6800         7.88
      0.6810         7.88
      0.6820         7.94
      0.6830         7.92
      0.6840         7.95
      0.6850         7.94
      0.6860         7.98
      0.6870         7.99
      0.6880         8.00
      0.6890         7.94
      0.6900         7.92
      0.6910         7.92
      0.6920         8.00
      0.6930         8.03
      0.6940         8.06
      0.6950         8.13
      0.6960         8.13
      0.6970         8.16
      0.6980         8.29
      0.6990         8.32
      0.7000         8.41
      0.7010         8.35
      0.7020         8.33
      0.7030         8.32
      0.7040         8.28
      0.7050         8.27
      0.7060         8.16
      0.7070         8.20
      0.7080         8.19
      0.7090         8.27
      0.7100         8.28
      0.7110         8.20
      0.7120         8.20
      0.7130         8.19
      0.7140         8.15
      0.7150         8.07
      0.7160         8.12
      0.7170         8.08
      0.7180         8.01
      0.7190         8.04
      0.7200         8.04
      0.7210         8.09
      0.7220         8.09
      0.7230         8.03
      0.7240         8.05
      0.7250         8.09
      0.7260         8.09
      0.7270         7.98
      0.7280         7.96
      0.7290         7.90
      0.7300         7.85
      0.7310         7.85
      0.7320         7.86
      0.7330         7.85
      0.7340         7.76
      0.7350         7.81
      0.7360         7.78
      0.7370         7.80
      0.7380         7.73
      0.7390         7.72
      0.7400         7.70
      0.7410         7.73
      0.7420         7.77
      0.7430         7.81
      0.7440         7.80
      0.7450         7.76
      0.7460         7.77
      0.7470         7.84
      0.7480         7.91
      0.7490         7.95
      0.7500         7.92
      0.7510         8.03
      0.7520         7.99
      0.7530         7.96
      0.7540         8.09
      0.7550         8.07
      0.7560         8.03
      0.7570         8.03
      0.7580         8.08
      0.7590         8.11
      0.7600         8.04
      0.7610         7.97
      0.7620         7.93
      0.7630         7.92
      0.7640         7.90
      0.7650         7.92
      0.7660         7.97
      0.7670         7.89
