        Time   Palpation Force
      0.0000         1.00
      0.0010         1.08
      0.0020         1.59
      0.0030         2.14
      0.0040         2.66
      0.0050         3.26
      0.0060         3.81
      0.0070         4.33
      0.0080         4.87
      0.0090         5.40
      0.0100         5.90
      0.0110         6.45
      0.0120         7.00
      0.0130         7.52
      0.0140         7.99
      0.0150         8.56
      0.0160         9.00
      0.0170         9.47
      0.0180        10.05
      0.0190        10.56
      0.0200        10.45
      0.0210        10.42
      0.0220        10.36
      0.0230        10.28
      0.0240        10.20
      0.0250        10.08
      0.0260        10.05
      0.0270        10.05
      0.0280        10.04
      0.0290        10.00
      0.0300        10.05
      0.0310         9.97
      0.0320         9.94
      0.0330         9.93
      0.0340        10.00
      0.0350         9.91
      0.0360        10.05
      0.0370        10.14
      0.0380        10.09
      0.0390        10.10
      0.0400        10.20
      0.0410        10.29
      0.0420        10.39
      0.0430        10.39
      0.0440        10.54
      0.0450        10.62
      0.0460        10.61
      0.0470        10.55
      0.0480        10.50
      0.0490        10.51
      0.0500        10.41
      0.0510        10.47
      0.0520        10.43
      0.0530        10.43
      0.0540        10.41
      0.0550        10.42
      0.0560        10.27
      0.0570        10.26
      0.0580        10.22
      0.0590        10.19
      0.0600        10.17
      0.0610        10.09
      0.0620        10.06
      0.0630        10.10
      0.0640        10.07
      0.0650        10.06
      0.0660        10.09
      0.0670        10.15
      0.0680        10.23
      0.0690        10.22
      0.0700        10.33
      0.0710        10.34
      0.0720        10.38
      0.0730        10.41
      0.0740        10.94
      0.0750        10.92
      0.0760        11.02
      0.0770        10.42
      0.0780        10.47
      0.0790        10.50
      0.0800        10.49
      0.0810        10.50
      0.0820        10.40
      0.0830        10.39
      0.0840        10.35
      0.0850        10.34
      0.0860        10.30
      0.0870        10.27
      0.0880        10.30
      0.0890        10.23
      0.0900        10.23
      0.0910        10.17
      0.0920        10.17
      0.0930        10.18
      0.0940        10.17
      0.0950        10.23
      0.0960        10.30
      0.0970        10.42
      0.0980        10.47
      0.0990        10.43
      0.1000        10.46
      0.1010        10.45
      0.1020        10.55
      0.1030        10.55
      0.1040        10.54
      0.1050        10.49
      0.1060        10.55
      0.1070        10.58
      0.1080        10.54
      0.1090        10.61
      0.1100        10.54
      0.1110        10.54
      0.1120        10.49
      0.1130        10.43
      0.1140        10.39
      0.1150        10.35
      0.1160        10.27
      0.1170        10.16
      0.1180        10.08
      0.1190        10.22
      0.1200        10.15
      0.1210        10.20
      0.1220        10.18
      0.1230        10.28
      0.1240        10.30
      0.1250        10.31
      0.1260        10.30
      0.1270        10.30
      0.1280        10.28
      0.1290        10.27
      0.1300        10.28
      0.1310        10.31
      0.1320        10.34
      0.1330        10.35
      0.1340        10.39
      0.1350        10.39
      0.1360        10.34
      0.1370        10.39
      0.1380        10.36
      0.1390        10.23
      0.1400        10.26
      0.1410        10.20
      0.1420        10.22
      0.1430        10.11
      0.1440        10.08
      0.1450        10.11
      0.1460        10.12
      0.1470        10.11
      0.1480        10.14
      0.1490        10.19
      0.1500        10.17
      0.1510        10.18
      0.1520        10.23
      0.1530        10.29
      0.1540        10.29
      0.1550        10.29
      0.1560        10.34
      0.1570        10.35
      0.1580        10.43
      0.1590        10.45
      0.1600        10.46
      0.1610        10.46
      0.1620        10.43
      0.1630        10.41
      0.1640        10.38
      0.1650        10.30
      0.1660        10.23
      0.1670        10.22
      0.1680        10.18
      0.1690        10.10
      0.1700        10.15
      0.1710        10.14
      0.1720        10.10
      0.1730        10.02
      0.1740        10.09
      0.1750        10.03
      0.1760        10.05
      0.1770        10.05
      0.1780         9.97
      0.1790        10.02
      0.1800        10.10
      0.1810        10.14
      0.1820        10.15
      0.1830        10.26
      0.1840        10.26
      0.1850        10.37
      0.1860        10.37
      0.1870        10.42
      0.1880        10.39
      0.1890        10.46
      0.1900        10.42
      0.1910        10.41
      0.1920        10.43
      0.1930        10.46
      0.1940        10.39
      0.1950        10.41
      0.1960        10.34
      0.1970        10.28
      0.1980        10.34
      0.1990        10.26
      0.2000        10.14
      0.2010        10.16
      0.2020        10.19
      0.2030        10.08
      0.2040        10.07
      0.2050        10.10
      0.2060        10.16
      0.2070        10.22
      0.2080        10.28
      0.2090        10.27
      0.2100        10.31
      0.2110        10.35
      0.2120        10.42
      0.2130        10.45
      0.2140        10.43
      0.2150        10.43
      0.2160        10.55
      0.2170        10.51
      0.2180        10.47
      0.2190        10.55
      0.2200        10.59
      0.2210        10.49
      0.2220        10.38
      0.2230        10.45
      0.2240        10.49
      0.2250        10.42
      0.2260        10.35
      0.2270        10.19
      0.2280        10.10
      0.2290        10.04
      0.2300        10.03
      0.2310         9.91
      0.2320         9.83
      0.2330         9.76
      0.2340         9.83
      0.2350         9.86
      0.2360         9.77
      0.2370         9.85
      0.2380         9.86
      0.2390         9.79
      0.2400         9.81
      0.2410         9.87
      0.2420         9.99
      0.2430         9.94
      0.2440         9.97
      0.2450         9.95
      0.2460        10.01
      0.2470        10.05
      0.2480        10.06
      0.2490        10.17
      0.2500        10.10
      0.2510        10.22
      0.2520        10.14
      0.2530        10.15
      0.2540        10.02
      0.2550        10.07
      0.2560        10.05
      0.2570        10.03
      0.2580        10.01
      0.2590         9.95
      0.2600        10.02
      0.2610         9.94
      0.2620         9.90
      0.2630         9.90
      0.2640         9.93
      0.2650         9.97
      0.2660         9.99
      0.2670        10.02
      0.2680        10.09
      0.2690         9.99
      0.2700        10.09
      0.2710        10.07
      0.2720        10.11
      0.2730        10.18
      0.2740        10.25
      0.2750        10.22
      0.2760        10.29
      0.2770        10.29
      0.2780        10.29
      0.2790        10.45
      0.2800        10.42
      0.2810        10.47
      0.2820        10.46
      0.2830        10.44
      0.2840        10.41
      0.2850        10.36
      0.2860        10.22
      0.2870        10.22
      0.2880        10.21
      0.2890        10.25
      0.2900        10.29
      0.2910        10.24
      0.2920        10.25
      0.2930        10.21
      0.2940        10.17
      0.2950        10.13
      0.2960        10.12
      0.2970        10.19
      0.2980        10.19
      0.2990        10.09
      0.3000        10.09
      0.3010        10.09
      0.3020        10.12
      0.3030        10.22
      0.3040        10.18
      0.3050        10.23
      0.3060        10.35
      0.3070        10.31
      0.3080        10.32
      0.3090        10.22
      0.3100        10.14
      0.3110        10.12
      0.3120        10.18
      0.3130        10.19
      0.3140        10.19
      0.3150        10.17
      0.3160        10.26
      0.3170        10.18
      0.3180        10.22
      0.3190        10.22
      0.3200        10.19
      0.3210        10.18
      0.3220        10.21
      0.3230        10.12
      0.3240        10.12
      0.3250        10.10
      0.3260        10.05
      0.3270        10.05
      0.3280        10.03
      0.3290        10.18
      0.3300        10.19
      0.3310        10.22
      0.3320        10.14
      0.3330        10.11
      0.3340        10.11
      0.3350        10.17
      0.3360        10.07
      0.3370        10.01
      0.3380         9.98
      0.3390        10.03
      0.3400        10.03
      0.3410        10.05
      0.3420         9.94
      0.3430         9.98
      0.3440        10.07
      0.3450         9.99
      0.3460         9.98
      0.3470         9.94
      0.3480         9.87
      0.3490         9.82
      0.3500         9.84
      0.3510         9.88
      0.3520         9.86
      0.3530         9.87
      0.3540         9.92
      0.3550         9.94
      0.3560        10.00
      0.3570        10.14
      0.3580        10.19
      0.3590        10.16
      0.3600        10.19
      0.3610        10.26
      0.3620        10.36
      0.3630        10.40
      0.3640        10.28
      0.3650        10.35
      0.3660        10.36
      0.3670        10.43
      0.3680        10.55
      0.3690        10.55
      0.3700        10.51
      0.3710        10.47
      0.3720        10.48
      0.3730        10.41
      0.3740        10.36
      0.3750        10.28
      0.3760        10.17
      0.3770        10.15
      0.3780        10.07
      0.3790        10.04
      0.3800         9.99
      0.3810         9.91
      0.3820         9.85
      0.3830         9.87
      0.3840         9.87
      0.3850         9.89
      0.3860         9.89
      0.3870         9.95
      0.3880         9.88
      0.3890         9.96
      0.3900        10.03
      0.3910        10.05
      0.3920        10.09
      0.3930        10.11
      0.3940        10.13
      0.3950        10.19
      0.3960        10.22
      0.3970        10.18
      0.3980        10.24
      0.3990        10.26
      0.4000        10.23
      0.4010        10.24
      0.4020        10.21
      0.4030        10.18
      0.4040        10.16
      0.4050         9.98
      0.4060         9.99
      0.4070         9.92
      0.4080         9.90
      0.4090         9.87
      0.4100         9.83
      0.4110         9.84
      0.4120         9.91
      0.4130        10.00
      0.4140        10.07
      0.4150        10.10
      0.4160        10.11
      0.4170        10.16
      0.4180        10.16
      0.4190        10.16
      0.4200        10.24
      0.4210        10.30
      0.4220        10.34
      0.4230        10.40
      0.4240        10.44
      0.4250        10.62
      0.4260        10.58
      0.4270        10.62
      0.4280        10.64
      0.4290        10.67
      0.4300        10.63
      0.4310        10.59
      0.4320        10.52
      0.4330        10.49
      0.4340        10.44
      0.4350        10.43
      0.4360        10.33
      0.4370        10.27
      0.4380        10.25
      0.4390        10.20
      0.4400        10.22
      0.4410        10.16
      0.4420        10.26
      0.4430        10.24
      0.4440        10.30
      0.4450        10.26
      0.4460        10.24
      0.4470        10.34
      0.4480        10.38
      0.4490        10.39
      0.4500        10.50
      0.4510        10.56
      0.4520        10.64
      0.4530        10.59
      0.4540        10.56
      0.4550        10.56
      0.4560        10.67
      0.4570        10.72
      0.4580        10.64
      0.4590        10.70
      0.4600        10.64
      0.4610        10.62
      0.4620        10.43
      0.4630        10.40
      0.4640        10.38
      0.4650        10.39
      0.4660        10.40
      0.4670        10.24
      0.4680        10.25
      0.4690        10.13
      0.4700        10.11
      0.4710        10.05
      0.4720         9.95
      0.4730        10.01
      0.4740        10.05
      0.4750        10.07
      0.4760        10.04
      0.4770        10.05
      0.4780        10.21
      0.4790        10.24
      0.4800        10.24
      0.4810        10.25
      0.4820        10.34
      0.4830        10.34
      0.4840        10.32
      0.4850        10.33
      0.4860        10.38
      0.4870        10.44
      0.4880        10.41
      0.4890        10.40
      0.4900        10.28
      0.4910        10.30
      0.4920        10.33
      0.4930        10.34
      0.4940        10.24
      0.4950        10.21
      0.4960        10.17
      0.4970        10.16
      0.4980        10.08
      0.4990         9.98
      0.5000         9.98
      0.5010         9.98
      0.5020        10.01
      0.5030         9.96
      0.5040         9.99
      0.5050        10.09
      0.5060        10.11
      0.5070        10.09
      0.5080        10.15
      0.5090        10.15
      0.5100        10.24
      0.5110        10.19
      0.5120        10.24
      0.5130        10.23
      0.5140        10.36
      0.5150        10.37
      0.5160        10.37
      0.5170        10.40
      0.5180        10.40
      0.5190        10.37
      0.5200        10.36
      0.5210        10.36
      0.5220        10.35
      0.5230        10.43
      0.5240        10.41
      0.5250        10.28
      0.5260        10.23
      0.5270        10.30
      0.5280        10.23
      0.5290        10.28
      0.5300        10.24
      0.5310        10.28
      0.5320        10.18
      0.5330        10.16
      0.5340        10.14
      0.5350        10.19
      0.5360        10.27
      0.5370        10.21
      0.5380        10.23
      0.5390        10.38
      0.5400        10.39
      0.5410        10.39
      0.5420        10.47
      0.5430        10.41
      0.5440        10.40
      0.5450        10.36
      0.5460        10.36
      0.5470        10.32
      0.5480        10.33
      0.5490        10.35
      0.5500        10.35
      0.5510        10.39
      0.5520        10.40
      0.5530        10.40
      0.5540        10.42
      0.5550        10.35
      0.5560        10.32
      0.5570        10.31
      0.5580        10.29
      0.5590        10.29
      0.5600        10.35
      0.5610        10.38
      0.5620        10.35
      0.5630        10.33
      0.5640        10.36
      0.5650        10.52
      0.5660        10.59
      0.5670        10.60
      0.5680        10.63
      0.5690        10.63
      0.5700        10.68
      0.5710        10.69
      0.5720        10.72
      0.5730        10.68
      0.5740        10.63
      0.5750        10.60
      0.5760        10.57
      0.5770        10.59
      0.5780        10.52
      0.5790        10.45
      0.5800        10.38
      0.5810        10.37
      0.5820        10.31
      0.5830        10.29
      0.5840        10.31
      0.5850        10.23
      0.5860        10.15
      0.5870        10.13
      0.5880        10.04
      0.5890        10.05
      0.5900        10.00
      0.5910         9.88
      0.5920         9.87
      0.5930         9.95
      0.5940        10.04
      0.5950        10.12
      0.5960        10.16
      0.5970        10.11
      0.5980        10.21
      0.5990        10.25
      0.6000        10.29
      0.6010        10.33
      0.6020        10.37
      0.6030        10.40
      0.6040        10.35
      0.6050        10.36
      0.6060        10.36
      0.6070        10.35
      0.6080        10.40
      0.6090        10.41
      0.6100        10.41
      0.6110        10.49
      0.6120        10.55
      0.6130        10.48
      0.6140        10.44
      0.6150        10.33
      0.6160        10.35
      0.6170        10.36
      0.6180        10.33
      0.6190        10.29
      0.6200        10.29
      0.6210        10.31
      0.6220        10.28
      0.6230        10.31
      0.6240        10.32
      0.6250        10.31
      0.6260        10.36
      0.6270        10.40
      0.6280        10.33
      0.6290        10.31
      0.6300        10.28
      0.6310        10.31
      0.6320        10.24
      0.6330        10.29
      0.6340        10.24
      0.6350        10.29
      0.6360        10.24
      0.6370        10.27
      0.6380        10.21
      0.6390        10.24
      0.6400        10.16
      0.6410        10.13
      0.6420        10.11
      0.6430        10.11
      0.6440        10.07
      0.6450        10.04
      0.6460        10.08
      0.6470        10.04
      0.6480        10.11
      0.6490        10.09
      0.6500        10.20
      0.6510        10.20
      0.6520        10.27
      0.6530        10.28
      0.6540        10.27
      0.6550        10.25
      0.6560        10.27
      0.6570        10.33
      0.6580        10.40
      0.6590        10.40
      0.6600        10.45
      0.6610        10.45
      0.6620        10.48
      0.6630        10.48
      0.6640        10.57
      0.6650        10.56
      0.6660        10.48
      0.6670        10.41
      0.6680        10.36
      0.6690        10.36
      0.6700        10.25
      0.6710        10.25
      0.6720        10.20
      0.6730        10.14
      0.6740        10.21
      0.6750        10.26
      0.6760        10.22
      0.6770        10.14
      0.6780        10.16
      0.6790        10.14
      0.6800        10.17
      0.6810        10.17
      0.6820        10.25
      0.6830        10.20
      0.6840        10.23
      0.6850        10.24
      0.6860        10.28
      0.6870        10.36
      0.6880        10.39
      0.6890        10.43
      0.6900        10.52
      0.6910        10.48
      0.6920        10.51
      0.6930        10.56
      0.6940        10.60
      0.6950        10.51
      0.6960        10.56
      0.6970        10.63
      0.6980        10.53
      0.6990        10.53
      0.7000        10.52
      0.7010        10.45
      0.7020        10.37
      0.7030        10.40
      0.7040        10.40
      0.7050        10.41
      0.7060        10.37
      0.7070        10.42
      0.7080        10.48
      0.7090        10.57
      0.7100        10.49
      0.7110        10.51
      0.7120        10.57
      0.7130        10.59
      0.7140        10.53
      0.7150        10.56
      0.7160        10.59
      0.7170        10.57
      0.7180        10.60
      0.7190        10.64
      0.7200        10.69
      0.7210        10.79
      0.7220        10.76
      0.7230        10.73
      0.7240        10.68
      0.7250        10.69
      0.7260        10.77
      0.7270        10.67
      0.7280        10.61
      0.7290        10.44
      0.7300        10.42
      0.7310        10.44
      0.7320        10.37
      0.7330        10.33
      0.7340        10.29
      0.7350        10.28
      0.7360        10.25
      0.7370        10.18
      0.7380        10.26
      0.7390        10.28
      0.7400        10.25
      0.7410        10.20
      0.7420        10.22
      0.7430        10.25
      0.7440        10.32
      0.7450        10.26
      0.7460        10.22
      0.7470        10.25
      0.7480        10.29
      0.7490        10.28
      0.7500        10.26
      0.7510        10.26
      0.7520        10.28
      0.7530        10.26
      0.7540        10.18
      0.7550        10.21
      0.7560        10.26
      0.7570        10.25
      0.7580        10.18
      0.7590        10.06
      0.7600        10.02
      0.7610         9.99
      0.7620         9.99
      0.7630        10.02
      0.7640         9.94
      0.7650        10.02
      0.7660         9.99
      0.7670        10.08
