        Time   Palpation Force
      0.0000         1.00
      0.0010         1.05
      0.0020         1.57
      0.0030         2.08
      0.0040         2.54
      0.0050         3.06
      0.0060         3.54
      0.0070         4.07
      0.0080         4.58
      0.0090         5.08
      0.0100         5.58
      0.0110         6.06
      0.0120         6.53
      0.0130         7.05
      0.0140         7.52
      0.0150         7.95
      0.0160         8.37
      0.0170         8.89
      0.0180         9.27
      0.0190         9.72
      0.0200         9.66
      0.0210         9.57
      0.0220         9.54
      0.0230         9.49
      0.0240         9.58
      0.0250         9.53
      0.0260         9.49
      0.0270         9.44
      0.0280         9.42
      0.0290         9.42
      0.0300         9.48
      0.0310         9.48
      0.0320         9.50
      0.0330         9.48
      0.0340         9.52
      0.0350         9.57
      0.0360         9.62
      0.0370         9.57
      0.0380         9.65
      0.0390         9.68
      0.0400         9.73
      0.0410         9.74
      0.0420         9.77
      0.0430         9.73
      0.0440         9.64
      0.0450         9.65
      0.0460         9.70
      0.0470         9.73
      0.0480         9.70
      0.0490         9.64
      0.0500         9.57
      0.0510         9.52
      0.0520         9.50
      0.0530         9.50
      0.0540         9.44
      0.0550         9.44
      0.0560         9.46
      0.0570         9.40
      0.0580         9.50
      0.0590         9.48
      0.0600         9.45
      0.0610         9.48
      0.0620         9.41
      0.0630         9.51
      0.0640         9.53
      0.0650         9.59
      0.0660         9.52
      0.0670         9.51
      0.0680         9.56
      0.0690         9.63
      0.0700         9.71
      0.0710         9.76
      0.0720         9.73
      0.0730         9.71
      0.0740         9.79
      0.0750         9.75
      0.0760         9.71
      0.0770         9.79
      0.0780         9.68
      0.0790         9.68
      0.0800         9.65
      0.0810         9.71
      0.0820         9.75
      0.0830         9.77
      0.0840         9.72
      0.0850         9.64
      0.0860         9.69
      0.0870         9.65
      0.0880         9.64
      0.0890         9.61
      0.0900         9.55
      0.0910         9.65
      0.0920         9.71
      0.0930         9.79
      0.0940         9.74
      0.0950         9.79
      0.0960         9.87
      0.0970         9.90
      0.0980        10.00
      0.0990        10.04
      0.1000        10.03
      0.1010         9.99
      0.1020         9.92
      0.1030         9.91
      0.1040         9.95
      0.1050         9.95
      0.1060         9.94
      0.1070         9.92
      0.1080         9.95
      0.1090         9.95
      0.1100         9.91
      0.1110         9.81
      0.1120         9.75
      0.1130         9.69
      0.1140         9.67
      0.1150         9.67
      0.1160         9.57
      0.1170         9.53
      0.1180         9.48
      0.1190         9.43
      0.1200         9.49
      0.1210         9.47
      0.1220         9.51
      0.1230         9.51
      0.1240         9.47
      0.1250         9.52
      0.1260         9.55
      0.1270         9.57
      0.1280         9.52
      0.1290         9.51
      0.1300         9.49
      0.1310         9.49
      0.1320         9.52
      0.1330         9.52
      0.1340         9.53
      0.1350         9.55
      0.1360         9.52
      0.1370         9.51
      0.1380         9.45
      0.1390         9.49
      0.1400         9.41
      0.1410         9.45
      0.1420         9.45
      0.1430         9.43
      0.1440         9.44
      0.1450         9.39
      0.1460         9.36
      0.1470         9.35
      0.1480         9.37
      0.1490         9.40
      0.1500         9.43
      0.1510         9.45
      0.1520         9.35
      0.1530         9.37
      0.1540         9.40
      0.1550         9.41
      0.1560         9.55
      0.1570         9.57
      0.1580         9.64
      0.1590         9.71
      0.1600         9.75
      0.1610         9.72
      0.1620         9.68
      0.1630         9.60
      0.1640         9.57
      0.1650         9.60
      0.1660         9.60
      0.1670         9.64
      0.1680         9.63
      0.1690         9.62
      0.1700         9.60
      0.1710         9.60
      0.1720         9.68
      0.1730         9.68
      0.1740         9.66
      0.1750         9.62
      0.1760         9.51
      0.1770         9.55
      0.1780         9.50
      0.1790         9.43
      0.1800         9.48
      0.1810         9.47
      0.1820         9.59
      0.1830         9.64
      0.1840         9.72
      0.1850         9.71
      0.1860         9.71
      0.1870         9.71
      0.1880         9.68
      0.1890         9.71
      0.1900         9.70
      0.1910         9.63
      0.1920         9.71
      0.1930         9.64
      0.1940         9.62
      0.1950         9.60
      0.1960         9.59
      0.1970         9.58
      0.1980         9.59
      0.1990         9.56
      0.2000         9.50
      0.2010         9.52
      0.2020         9.46
      0.2030         9.50
      0.2040         9.47
      0.2050         9.51
      0.2060         9.54
      0.2070         9.56
      0.2080         9.63
      0.2090         9.63
      0.2100         9.67
      0.2110         9.69
      0.2120         9.70
      0.2130         9.78
      0.2140         9.87
      0.2150         9.94
      0.2160         9.98
      0.2170         9.93
      0.2180         9.90
      0.2190        10.01
      0.2200         9.99
      0.2210         9.98
      0.2220        10.02
      0.2230         9.95
      0.2240         9.90
      0.2250         9.84
      0.2260         9.79
      0.2270         9.76
      0.2280         9.70
      0.2290         9.71
      0.2300         9.74
      0.2310         9.76
      0.2320         9.72
      0.2330         9.64
      0.2340         9.63
      0.2350         9.62
      0.2360         9.67
      0.2370         9.75
      0.2380         9.80
      0.2390         9.75
      0.2400         9.76
      0.2410         9.76
      0.2420         9.68
      0.2430         9.74
      0.2440         9.86
      0.2450         9.97
      0.2460         9.97
      0.2470         9.94
      0.2480         9.97
      0.2490         9.89
      0.2500         9.87
      0.2510         9.85
      0.2520         9.77
      0.2530         9.75
      0.2540         9.74
      0.2550         9.67
      0.2560         9.59
      0.2570         9.49
      0.2580         9.46
      0.2590         9.36
      0.2600         9.46
      0.2610         9.99
      0.2620         9.51
      0.2630         9.98
      0.2640         9.43
      0.2650         9.33
      0.2660         9.42
      0.2670         9.42
      0.2680         9.42
      0.2690         9.50
      0.2700         9.46
      0.2710         9.51
      0.2720         9.59
      0.2730         9.62
      0.2740         9.59
      0.2750         9.63
      0.2760         9.69
      0.2770         9.77
      0.2780         9.77
      0.2790         9.79
      0.2800         9.67
      0.2810         9.74
      0.2820         9.74
      0.2830         9.75
      0.2840         9.71
      0.2850         9.77
      0.2860         9.62
      0.2870         9.70
      0.2880         9.69
      0.2890         9.63
      0.2900         9.62
      0.2910         9.59
      0.2920         9.54
      0.2930         9.57
      0.2940         9.58
      0.2950         9.51
      0.2960         9.58
      0.2970         9.55
      0.2980         9.59
      0.2990         9.66
      0.3000         9.67
      0.3010         9.63
      0.3020         9.58
      0.3030         9.65
      0.3040         9.75
      0.3050         9.79
      0.3060         9.91
      0.3070         9.89
      0.3080         9.89
      0.3090         9.89
      0.3100         9.85
      0.3110         9.83
      0.3120         9.87
      0.3130         9.85
      0.3140         9.79
      0.3150         9.81
      0.3160         9.75
      0.3170         9.74
      0.3180         9.68
      0.3190         9.73
      0.3200         9.73
      0.3210         9.73
      0.3220         9.75
      0.3230         9.67
      0.3240         9.59
      0.3250         9.58
      0.3260         9.51
      0.3270         9.43
      0.3280         9.42
      0.3290         9.39
      0.3300         9.45
      0.3310         9.49
      0.3320         9.43
      0.3330         9.43
      0.3340         9.50
      0.3350         9.46
      0.3360         9.42
      0.3370         9.46
      0.3380         9.46
      0.3390         9.36
      0.3400         9.44
      0.3410         9.42
      0.3420         9.46
      0.3430         9.49
      0.3440         9.53
      0.3450         9.41
      0.3460         9.49
      0.3470         9.45
      0.3480         9.44
      0.3490         9.45
      0.3500         9.49
      0.3510         9.45
      0.3520         9.50
      0.3530         9.56
      0.3540         9.56
      0.3550         9.71
      0.3560         9.75
      0.3570         9.81
      0.3580         9.87
      0.3590         9.96
      0.3600         9.91
      0.3610         9.91
      0.3620         9.80
      0.3630         9.84
      0.3640         9.77
      0.3650         9.87
      0.3660         9.82
      0.3670         9.87
      0.3680         9.88
      0.3690         9.89
      0.3700         9.80
      0.3710         9.74
      0.3720         9.73
      0.3730         9.64
      0.3740         9.68
      0.3750         9.65
      0.3760         9.58
      0.3770         9.52
      0.3780         9.44
      0.3790         9.42
      0.3800         9.42
      0.3810         9.42
      0.3820         9.49
      0.3830         9.49
      0.3840         9.56
      0.3850         9.62
      0.3860         9.65
      0.3870         9.73
      0.3880         9.77
      0.3890         9.89
      0.3900         9.97
      0.3910        10.04
      0.3920        10.09
      0.3930        10.16
      0.3940        10.10
      0.3950        10.06
      0.3960        10.10
      0.3970        10.05
      0.3980        10.12
      0.3990        10.04
      0.4000        10.00
      0.4010         9.97
      0.4020         9.98
      0.4030         9.92
      0.4040         9.85
      0.4050         9.72
      0.4060         9.68
      0.4070         9.68
      0.4080         9.62
      0.4090         9.54
      0.4100         9.58
      0.4110         9.64
      0.4120         9.53
      0.4130         9.50
      0.4140         9.53
      0.4150         9.56
      0.4160         9.62
      0.4170         9.77
      0.4180         9.80
      0.4190         9.84
      0.4200         9.84
      0.4210         9.85
      0.4220         9.84
      0.4230         9.90
      0.4240         9.92
      0.4250        10.05
      0.4260         9.97
      0.4270         9.93
      0.4280        10.00
      0.4290         9.85
      0.4300         9.77
      0.4310         9.68
      0.4320         9.73
      0.4330         9.83
      0.4340         9.73
      0.4350         9.72
      0.4360         9.68
      0.4370         9.52
      0.4380         9.38
      0.4390         9.37
      0.4400         9.43
      0.4410         9.41
      0.4420         9.41
      0.4430         9.44
      0.4440         9.44
      0.4450         9.33
      0.4460         9.44
      0.4470         9.50
      0.4480         9.48
      0.4490         9.64
      0.4500         9.66
      0.4510         9.72
      0.4520         9.76
      0.4530         9.68
      0.4540         9.76
      0.4550         9.73
      0.4560         9.73
      0.4570         9.79
      0.4580         9.79
      0.4590         9.78
      0.4600         9.70
      0.4610         9.75
      0.4620         9.75
      0.4630         9.71
      0.4640         9.69
      0.4650         9.70
      0.4660         9.64
      0.4670         9.55
      0.4680         9.63
      0.4690         9.55
      0.4700         9.62
      0.4710         9.56
      0.4720         9.60
      0.4730         9.67
      0.4740         9.62
      0.4750         9.68
      0.4760         9.65
      0.4770         9.59
      0.4780         9.67
      0.4790         9.70
      0.4800         9.77
      0.4810         9.75
      0.4820         9.82
      0.4830         9.78
      0.4840         9.78
      0.4850         9.78
      0.4860         9.77
      0.4870         9.79
      0.4880         9.67
      0.4890         9.70
      0.4900         9.63
      0.4910         9.67
      0.4920         9.54
      0.4930         9.42
      0.4940         9.46
      0.4950         9.41
      0.4960         9.37
      0.4970         9.41
      0.4980         9.41
      0.4990         9.37
      0.5000         9.44
      0.5010         9.44
      0.5020         9.42
      0.5030         9.49
      0.5040         9.50
      0.5050         9.54
      0.5060         9.56
      0.5070         9.61
      0.5080         9.62
      0.5090         9.65
      0.5100         9.65
      0.5110         9.68
      0.5120         9.74
      0.5130         9.76
      0.5140         9.72
      0.5150         9.69
      0.5160         9.66
      0.5170         9.62
      0.5180         9.58
      0.5190         9.62
      0.5200         9.57
      0.5210         9.54
      0.5220         9.54
      0.5230         9.49
      0.5240         9.48
      0.5250         9.44
      0.5260         9.45
      0.5270         9.44
      0.5280         9.44
      0.5290         9.46
      0.5300         9.52
      0.5310         9.49
      0.5320         9.52
      0.5330         9.56
      0.5340         9.56
      0.5350         9.56
      0.5360         9.65
      0.5370         9.69
      0.5380         9.79
      0.5390         9.84
      0.5400         9.83
      0.5410         9.83
      0.5420         9.72
      0.5430         9.72
      0.5440         9.77
      0.5450         9.77
      0.5460         9.72
      0.5470         9.70
      0.5480         9.74
      0.5490         9.65
      0.5500         9.57
      0.5510         9.56
      0.5520         9.52
      0.5530         9.53
      0.5540         9.54
      0.5550         9.53
      0.5560         9.53
      0.5570         9.53
      0.5580         9.45
      0.5590         9.42
      0.5600         9.48
      0.5610         9.54
      0.5620         9.64
      0.5630         9.69
      0.5640         9.67
      0.5650         9.71
      0.5660         9.80
      0.5670         9.83
      0.5680         9.81
      0.5690         9.87
      0.5700         9.84
      0.5710         9.83
      0.5720         9.80
      0.5730         9.79
      0.5740         9.69
      0.5750         9.75
      0.5760         9.64
      0.5770         9.63
      0.5780         9.65
      0.5790         9.65
      0.5800         9.55
      0.5810         9.53
      0.5820         9.49
      0.5830         9.49
      0.5840         9.45
      0.5850         9.44
      0.5860         9.41
      0.5870         9.43
      0.5880         9.47
      0.5890         9.52
      0.5900         9.55
      0.5910         9.60
      0.5920         9.64
      0.5930         9.68
      0.5940         9.84
      0.5950         9.86
      0.5960         9.96
      0.5970        10.03
      0.5980        10.06
      0.5990        10.03
      0.6000        10.07
      0.6010         9.99
      0.6020        10.04
      0.6030        10.02
      0.6040        10.04
      0.6050         9.99
      0.6060         9.92
      0.6070         9.87
      0.6080         9.84
      0.6090         9.76
      0.6100         9.80
      0.6110         9.76
      0.6120         9.74
      0.6130         9.72
      0.6140         9.66
      0.6150         9.66
      0.6160         9.63
      0.6170         9.58
      0.6180         9.60
      0.6190         9.62
      0.6200         9.60
      0.6210         9.71
      0.6220         9.67
      0.6230         9.66
      0.6240         9.68
      0.6250         9.71
      0.6260         9.78
      0.6270         9.82
      0.6280         9.79
      0.6290         9.83
      0.6300         9.91
      0.6310         9.91
      0.6320         9.97
      0.6330         9.93
      0.6340         9.85
      0.6350         9.85
      0.6360         9.88
      0.6370         9.77
      0.6380         9.68
      0.6390         9.65
      0.6400         9.69
      0.6410         9.64
      0.6420         9.61
      0.6430         9.55
      0.6440         9.51
      0.6450         9.55
      0.6460         9.52
      0.6470         9.52
      0.6480         9.55
      0.6490         9.49
      0.6500         9.44
      0.6510         9.51
      0.6520         9.52
      0.6530         9.63
      0.6540         9.79
      0.6550         9.80
      0.6560         9.87
      0.6570         9.91
      0.6580         9.91
      0.6590         9.95
      0.6600         9.92
      0.6610         9.88
      0.6620         9.90
      0.6630         9.93
      0.6640         9.96
      0.6650         9.93
      0.6660         9.86
      0.6670         9.82
      0.6680         9.74
      0.6690         9.80
      0.6700         9.77
      0.6710         9.72
      0.6720         9.62
      0.6730         9.64
      0.6740         9.64
      0.6750         9.60
      0.6760         9.52
      0.6770         9.60
      0.6780         9.74
      0.6790         9.74
      0.6800         9.78
      0.6810         9.84
      0.6820         9.90
      0.6830        10.04
      0.6840        10.05
      0.6850        10.01
      0.6860        10.12
      0.6870        10.17
      0.6880        10.31
      0.6890        10.28
      0.6900        10.21
      0.6910        10.21
      0.6920        10.25
      0.6930        10.15
      0.6940        10.05
      0.6950        10.08
      0.6960        10.11
      0.6970        10.13
      0.6980        10.02
      0.6990        10.02
      0.7000         9.97
      0.7010         9.89
      0.7020         9.86
      0.7030         9.72
      0.7040         9.74
      0.7050         9.77
      0.7060         9.77
      0.7070         9.76
      0.7080         9.70
      0.7090         9.78
      0.7100         9.90
      0.7110         9.90
      0.7120         9.88
      0.7130         9.93
      0.7140         9.97
      0.7150        10.00
      0.7160         9.94
      0.7170         9.93
      0.7180         9.88
      0.7190         9.88
      0.7200         9.82
      0.7210         9.88
      0.7220         9.84
      0.7230         9.83
      0.7240         9.71
      0.7250         9.73
      0.7260         9.70
      0.7270         9.66
      0.7280         9.58
      0.7290         9.51
      0.7300         9.43
      0.7310         9.42
      0.7320         9.42
      0.7330         9.37
      0.7340         9.38
      0.7350         9.30
      0.7360         9.33
      0.7370         9.29
      0.7380         9.33
      0.7390         9.40
      0.7400         9.48
      0.7410         9.50
      0.7420         9.46
      0.7430         9.46
      0.7440         9.57
      0.7450         9.58
      0.7460         9.60
      0.7470         9.53
      0.7480         9.55
      0.7490         9.53
      0.7500         9.51
      0.7510         9.50
      0.7520         9.46
      0.7530         9.45
      0.7540         9.39
      0.7550         9.39
      0.7560         9.34
      0.7570         9.38
      0.7580         9.37
      0.7590         9.22
      0.7600         9.26
      0.7610         9.26
      0.7620         9.30
      0.7630         9.33
      0.7640         9.31
      0.7650         9.29
      0.7660         9.27
      0.7670         9.34
