        Time   Palpation Force
      0.0000         1.00
      0.0010         2.33
      0.0020         3.48
      0.0030         4.60
      0.0040         6.27
      0.0050         7.49
      0.0060         8.68
      0.0070        10.04
      0.0080        11.45
      0.0090        12.80
      0.0100        14.13
      0.0110        15.32
      0.0120        16.62
      0.0130        17.85
      0.0140        18.99
      0.0150        20.32
      0.0160        21.64
      0.0170        22.94
      0.0180        24.20
      0.0190        25.46
      0.0200        25.32
      0.0210        25.40
      0.0220        25.60
      0.0230        25.66
      0.0240        25.62
      0.0250        25.64
      0.0260        25.70
      0.0270        25.55
      0.0280        25.38
      0.0290        25.31
      0.0300        25.22
      0.0310        25.26
      0.0320        25.12
      0.0330        24.92
      0.0340        25.04
      0.0350        24.93
      0.0360        24.81
      0.0370        24.52
      0.0380        24.37
      0.0390        24.31
      0.0400        24.34
      0.0410        24.37
      0.0420        24.20
      0.0430        24.21
      0.0440        24.30
      0.0450        24.33
      0.0460        24.27
      0.0470        24.32
      0.0480        24.49
      0.0490        24.42
      0.0500        24.50
      0.0510        24.57
      0.0520        24.56
      0.0530        24.74
      0.0540        24.71
      0.0550        24.74
      0.0560        24.75
      0.0570        25.02
      0.0580        25.25
      0.0590        25.32
      0.0600        25.38
      0.0610        25.41
      0.0620        25.38
      0.0630        25.40
      0.0640        25.30
      0.0650        25.11
      0.0660        25.14
      0.0670        25.02
      0.0680        24.78
      0.0690        24.86
      0.0700        24.71
      0.0710        24.71
      0.0720        24.82
      0.0730        24.91
      0.0740        24.95
      0.0750        24.78
      0.0760        24.90
      0.0770        24.86
      0.0780        24.82
      0.0790        24.80
      0.0800        24.67
      0.0810        24.39
      0.0820        24.45
      0.0830        24.45
      0.0840        24.37
      0.0850        24.55
      0.0860        24.52
      0.0870        24.57
      0.0880        24.67
      0.0890        24.67
      0.0900        24.66
      0.0910        24.60
      0.0920        24.60
      0.0930        24.66
      0.0940        24.63
      0.0950        24.89
      0.0960        24.72
      0.0970        24.68
      0.0980        24.66
      0.0990        24.70
      0.1000        24.87
      0.1010        25.06
      0.1020        25.03
      0.1030        25.03
      0.1040        25.15
      0.1050        25.07
      0.1060        25.13
      0.1070        25.22
      0.1080        25.15
      0.1090        25.14
      0.1100        25.16
      0.1110        25.12
      0.1120        25.07
      0.1130        24.92
      0.1140        24.91
      0.1150        24.72
      0.1160        24.83
      0.1170        24.91
      0.1180        24.77
      0.1190        24.67
      0.1200        24.63
      0.1210        24.60
      0.1220        24.57
      0.1230        24.57
      0.1240        24.60
      0.1250        24.59
      0.1260        24.56
      0.1270        24.48
      0.1280        24.60
      0.1290        24.45
      0.1300        24.68
      0.1310        24.61
      0.1320        24.69
      0.1330        24.81
      0.1340        24.70
      0.1350        24.76
      0.1360        24.69
      0.1370        24.55
      0.1380        24.60
      0.1390        24.65
      0.1400        24.61
      0.1410        24.68
      0.1420        24.68
      0.1430        24.72
      0.1440        24.64
      0.1450        24.75
      0.1460        24.87
      0.1470        24.83
      0.1480        24.76
      0.1490        24.80
      0.1500        24.66
      0.1510        24.82
      0.1520        24.79
      0.1530        24.54
      0.1540        24.60
      0.1550        24.70
      0.1560        24.66
      0.1570        24.66
      0.1580        24.54
      0.1590        24.51
      0.1600        24.44
      0.1610        24.25
      0.1620        24.12
      0.1630        24.05
      0.1640        24.02
      0.1650        24.04
      0.1660        23.93
      0.1670        23.89
      0.1680        23.93
      0.1690        24.00
      0.1700        24.01
      0.1710        23.93
      0.1720        23.88
      0.1730        24.09
      0.1740        23.93
      0.1750        23.93
      0.1760        24.00
      0.1770        24.06
      0.1780        24.24
      0.1790        24.24
      0.1800        24.36
      0.1810        24.29
      0.1820        24.44
      0.1830        24.48
      0.1840        24.54
      0.1850        24.50
      0.1860        24.51
      0.1870        24.60
      0.1880        24.54
      0.1890        24.56
      0.1900        24.55
      0.1910        24.54
      0.1920        24.52
      0.1930        24.59
      0.1940        24.74
      0.1950        24.61
      0.1960        24.62
      0.1970        24.65
      0.1980        24.64
      0.1990        24.39
      0.2000        24.23
      0.2010        24.41
      0.2020        24.28
      0.2030        24.31
      0.2040        24.33
      0.2050        24.24
      0.2060        24.20
      0.2070        24.18
      0.2080        24.08
      0.2090        24.03
      0.2100        24.01
      0.2110        23.95
      0.2120        24.08
      0.2130        24.01
      0.2140        24.18
      0.2150        24.34
      0.2160        24.31
      0.2170        24.24
      0.2180        24.36
      0.2190        24.55
      0.2200        24.71
      0.2210        24.71
      0.2220        24.76
      0.2230        24.61
      0.2240        24.49
      0.2250        24.64
      0.2260        24.68
      0.2270        24.58
      0.2280        24.59
      0.2290        24.52
      0.2300        24.48
      0.2310        24.56
      0.2320        24.41
      0.2330        24.43
      0.2340        24.32
      0.2350        24.13
      0.2360        24.16
      0.2370        24.16
      0.2380        24.08
      0.2390        24.16
      0.2400        24.04
      0.2410        24.04
      0.2420        23.98
      0.2430        23.92
      0.2440        23.94
      0.2450        23.82
      0.2460        23.74
      0.2470        23.77
      0.2480        23.92
      0.2490        23.91
      0.2500        23.96
      0.2510        24.00
      0.2520        24.09
      0.2530        23.96
      0.2540        23.85
      0.2550        24.00
      0.2560        23.89
      0.2570        23.90
      0.2580        23.86
      0.2590        23.86
      0.2600        23.95
      0.2610        23.85
      0.2620        23.98
      0.2630        24.06
      0.2640        24.16
      0.2650        24.20
      0.2660        24.24
      0.2670        24.20
      0.2680        24.21
      0.2690        24.36
      0.2700        24.25
      0.2710        24.12
      0.2720        24.01
      0.2730        23.98
      0.2740        24.02
      0.2750        24.00
      0.2760        24.06
      0.2770        24.02
      0.2780        23.86
      0.2790        23.91
      0.2800        23.98
      0.2810        23.97
      0.2820        23.87
      0.2830        23.82
      0.2840        23.69
      0.2850        23.69
      0.2860        23.63
      0.2870        23.74
      0.2880        23.73
      0.2890        23.51
      0.2900        23.48
      0.2910        23.70
      0.2920        23.71
      0.2930        23.79
      0.2940        23.89
      0.2950        23.85
      0.2960        23.83
      0.2970        23.87
      0.2980        24.01
      0.2990        23.87
      0.3000        23.66
      0.3010        23.69
      0.3020        23.84
      0.3030        23.97
      0.3040        24.17
      0.3050        24.09
      0.3060        24.25
      0.3070        24.32
      0.3080        24.36
      0.3090        24.52
      0.3100        24.64
      0.3110        24.37
      0.3120        24.49
      0.3130        24.58
      0.3140        24.56
      0.3150        24.59
      0.3160        24.50
      0.3170        24.65
      0.3180        24.55
      0.3190        24.54
      0.3200        24.61
      0.3210        24.60
      0.3220        24.41
      0.3230        24.30
      0.3240        24.09
      0.3250        24.11
      0.3260        24.05
      0.3270        23.87
      0.3280        23.79
      0.3290        23.71
      0.3300        23.64
      0.3310        23.84
      0.3320        23.82
      0.3330        23.63
      0.3340        23.46
      0.3350        23.34
      0.3360        23.44
      0.3370        23.32
      0.3380        23.39
      0.3390        23.42
      0.3400        23.51
      0.3410        23.55
      0.3420        23.59
      0.3430        23.61
      0.3440        23.73
      0.3450        23.75
      0.3460        23.78
      0.3470        23.89
      0.3480        23.84
      0.3490        23.87
      0.3500        23.85
      0.3510        23.80
      0.3520        23.66
      0.3530        23.86
      0.3540        24.09
      0.3550        24.28
      0.3560        24.21
      0.3570        24.17
      0.3580        24.08
      0.3590        23.96
      0.3600        23.89
      0.3610        23.77
      0.3620        23.70
      0.3630        23.78
      0.3640        23.70
      0.3650        23.77
      0.3660        23.70
      0.3670        23.69
      0.3680        23.58
      0.3690        23.61
      0.3700        23.66
      0.3710        23.56
      0.3720        23.53
      0.3730        23.41
      0.3740        23.34
      0.3750        23.25
      0.3760        23.38
      0.3770        23.33
      0.3780        23.37
      0.3790        23.53
      0.3800        23.66
      0.3810        23.63
      0.3820        23.78
      0.3830        23.78
      0.3840        24.06
      0.3850        24.10
      0.3860        24.25
      0.3870        24.37
      0.3880        24.53
      0.3890        24.61
      0.3900        24.65
      0.3910        24.74
      0.3920        24.83
      0.3930        24.86
      0.3940        24.78
      0.3950        24.87
      0.3960        24.82
      0.3970        24.98
      0.3980        25.09
      0.3990        25.10
      0.4000        24.99
      0.4010        25.18
      0.4020        25.10
      0.4030        24.95
      0.4040        24.74
      0.4050        24.55
      0.4060        24.50
      0.4070        24.32
      0.4080        24.28
      0.4090        24.30
      0.4100        24.18
      0.4110        24.15
      0.4120        24.15
      0.4130        24.07
      0.4140        24.07
      0.4150        23.93
      0.4160        23.93
      0.4170        23.74
      0.4180        23.68
      0.4190        23.68
      0.4200        23.75
      0.4210        23.74
      0.4220        23.82
      0.4230        24.09
      0.4240        24.14
      0.4250        24.33
      0.4260        24.32
      0.4270        24.40
      0.4280        24.37
      0.4290        24.27
      0.4300        24.37
      0.4310        24.61
      0.4320        24.51
      0.4330        24.71
      0.4340        24.81
      0.4350        24.99
      0.4360        24.99
      0.4370        25.15
      0.4380        25.27
      0.4390        25.32
      0.4400        25.29
      0.4410        25.25
      0.4420        25.19
      0.4430        25.06
      0.4440        25.07
      0.4450        24.95
      0.4460        24.76
      0.4470        24.68
      0.4480        24.76
      0.4490        24.71
      0.4500        24.75
      0.4510        24.39
      0.4520        24.39
      0.4530        24.08
      0.4540        24.14
      0.4550        24.00
      0.4560        23.97
      0.4570        24.03
      0.4580        23.76
      0.4590        23.61
      0.4600        23.52
      0.4610        23.61
      0.4620        23.72
      0.4630        23.62
      0.4640        23.60
      0.4650        23.69
      0.4660        23.76
      0.4670        23.92
      0.4680        23.98
      0.4690        24.09
      0.4700        24.25
      0.4710        24.49
      0.4720        24.72
      0.4730        25.03
      0.4740        24.88
      0.4750        24.86
      0.4760        24.88
      0.4770        24.90
      0.4780        25.06
      0.4790        25.20
      0.4800        25.25
      0.4810        25.26
      0.4820        25.20
      0.4830        25.33
      0.4840        25.24
      0.4850        25.15
      0.4860        25.16
      0.4870        25.16
      0.4880        25.16
      0.4890        25.03
      0.4900        24.81
      0.4910        24.70
      0.4920        24.59
      0.4930        24.26
      0.4940        24.40
      0.4950        24.42
      0.4960        24.59
      0.4970        24.57
      0.4980        24.60
      0.4990        24.44
      0.5000        24.32
      0.5010        24.29
      0.5020        24.33
      0.5030        24.24
      0.5040        24.28
      0.5050        24.46
      0.5060        24.63
      0.5070        24.64
      0.5080        24.69
      0.5090        24.86
      0.5100        24.84
      0.5110        24.82
      0.5120        24.83
      0.5130        25.11
      0.5140        25.11
      0.5150        25.10
      0.5160        25.02
      0.5170        24.96
      0.5180        25.09
      0.5190        25.24
      0.5200        25.38
      0.5210        25.34
      0.5220        25.30
      0.5230        25.35
      0.5240        25.38
      0.5250        25.28
      0.5260        25.26
      0.5270        25.10
      0.5280        25.00
      0.5290        24.84
      0.5300        24.88
      0.5310        24.85
      0.5320        24.76
      0.5330        24.55
      0.5340        24.53
      0.5350        24.53
      0.5360        24.53
      0.5370        24.55
      0.5380        24.43
      0.5390        24.24
      0.5400        24.15
      0.5410        24.10
      0.5420        24.12
      0.5430        24.13
      0.5440        24.09
      0.5450        23.99
      0.5460        23.93
      0.5470        24.09
      0.5480        24.09
      0.5490        24.15
      0.5500        24.23
      0.5510        24.39
      0.5520        24.56
      0.5530        24.76
      0.5540        24.73
      0.5550        24.84
      0.5560        24.71
      0.5570        24.75
      0.5580        24.62
      0.5590        24.76
      0.5600        24.96
      0.5610        24.96
      0.5620        24.95
      0.5630        24.95
      0.5640        24.87
      0.5650        25.03
      0.5660        25.08
      0.5670        25.07
      0.5680        24.99
      0.5690        25.08
      0.5700        25.04
      0.5710        24.93
      0.5720        24.75
      0.5730        24.71
      0.5740        24.59
      0.5750        24.41
      0.5760        24.37
      0.5770        24.15
      0.5780        24.21
      0.5790        24.21
      0.5800        24.15
      0.5810        24.14
      0.5820        24.09
      0.5830        24.06
      0.5840        24.20
      0.5850        24.20
      0.5860        24.03
      0.5870        24.01
      0.5880        24.07
      0.5890        23.97
      0.5900        23.99
      0.5910        24.05
      0.5920        24.14
      0.5930        24.17
      0.5940        24.35
      0.5950        24.45
      0.5960        24.46
      0.5970        24.62
      0.5980        24.89
      0.5990        24.97
      0.6000        24.92
      0.6010        25.09
      0.6020        25.11
      0.6030        24.99
      0.6040        25.15
      0.6050        24.97
      0.6060        25.07
      0.6070        24.98
      0.6080        24.94
      0.6090        24.95
      0.6100        24.90
      0.6110        24.92
      0.6120        25.07
      0.6130        25.02
      0.6140        24.89
      0.6150        24.90
      0.6160        24.93
      0.6170        24.95
      0.6180        24.70
      0.6190        24.56
      0.6200        24.48
      0.6210        24.28
      0.6220        24.20
      0.6230        24.36
      0.6240        24.03
      0.6250        24.15
      0.6260        24.28
      0.6270        24.32
      0.6280        24.31
      0.6290        24.25
      0.6300        24.36
      0.6310        24.36
      0.6320        24.19
      0.6330        24.16
      0.6340        24.21
      0.6350        24.22
      0.6360        24.29
      0.6370        24.20
      0.6380        24.29
      0.6390        24.39
      0.6400        24.51
      0.6410        24.61
      0.6420        24.67
      0.6430        24.64
      0.6440        24.83
      0.6450        24.71
      0.6460        24.64
      0.6470        24.61
      0.6480        24.72
      0.6490        24.72
      0.6500        24.62
      0.6510        24.53
      0.6520        24.51
      0.6530        24.39
      0.6540        24.30
      0.6550        24.21
      0.6560        24.16
      0.6570        24.31
      0.6580        24.20
      0.6590        24.28
      0.6600        24.16
      0.6610        24.00
      0.6620        23.96
      0.6630        23.94
      0.6640        24.05
      0.6650        24.04
      0.6660        24.06
      0.6670        24.07
      0.6680        24.09
      0.6690        24.17
      0.6700        24.32
      0.6710        24.37
      0.6720        24.52
      0.6730        24.72
      0.6740        24.92
      0.6750        25.03
      0.6760        25.08
      0.6770        24.96
      0.6780        25.01
      0.6790        24.96
      0.6800        25.09
      0.6810        25.22
      0.6820        25.36
      0.6830        25.22
      0.6840        25.00
      0.6850        25.00
      0.6860        25.03
      0.6870        25.16
      0.6880        25.11
      0.6890        25.00
      0.6900        24.95
      0.6910        24.84
      0.6920        24.79
      0.6930        24.78
      0.6940        24.63
      0.6950        24.62
      0.6960        24.59
      0.6970        24.62
      0.6980        24.62
      0.6990        24.74
      0.7000        24.71
      0.7010        24.83
      0.7020        24.69
      0.7030        24.84
      0.7040        24.90
      0.7050        25.08
      0.7060        24.98
      0.7070        25.02
      0.7080        24.92
      0.7090        24.96
      0.7100        24.95
      0.7110        25.04
      0.7120        24.99
      0.7130        25.06
      0.7140        24.99
      0.7150        24.93
      0.7160        25.10
      0.7170        25.11
      0.7180        25.06
      0.7190        24.91
      0.7200        24.91
      0.7210        24.84
      0.7220        25.00
      0.7230        24.95
      0.7240        24.84
      0.7250        24.62
      0.7260        24.62
      0.7270        24.60
      0.7280        24.68
      0.7290        24.78
      0.7300        24.68
      0.7310        24.74
      0.7320        24.76
      0.7330        24.72
      0.7340        24.76
      0.7350        24.87
      0.7360        24.79
      0.7370        24.80
      0.7380        24.91
      0.7390        24.88
      0.7400        24.80
      0.7410        24.83
      0.7420        24.69
      0.7430        24.69
      0.7440        24.93
      0.7450        24.96
      0.7460        24.92
      0.7470        24.74
      0.7480        24.66
      0.7490        24.60
      0.7500        24.60
      0.7510        24.53
      0.7520        24.49
      0.7530        24.36
      0.7540        24.32
      0.7550        24.32
      0.7560        24.32
      0.7570        24.40
      0.7580        24.43
      0.7590        24.36
      0.7600        24.33
      0.7610        24.31
      0.7620        24.51
      0.7630        24.43
      0.7640        24.37
      0.7650        24.50
      0.7660        24.55
      0.7670        24.66
