        Time   Palpation Force
      0.0000         1.00
      0.0010         1.00
      0.0020         1.00
      0.0030         1.15
      0.0040         2.04
      0.0050         2.82
      0.0060         3.29
      0.0070         3.85
      0.0080         4.34
      0.0090         4.93
      0.0100         5.54
      0.0110         6.18
      0.0120         6.84
      0.0130         7.28
      0.0140         7.85
      0.0150         8.45
      0.0160         8.96
      0.0170         9.54
      0.0180        10.01
      0.0190        10.69
      0.0200        10.56
      0.0210        10.62
      0.0220        10.56
      0.0230        10.63
      0.0240        10.59
      0.0250        10.80
      0.0260        10.84
      0.0270        10.74
      0.0280        10.74
      0.0290        10.49
      0.0300        10.43
      0.0310        10.37
      0.0320        10.13
      0.0330        10.16
      0.0340        10.02
      0.0350         9.90
      0.0360         9.86
      0.0370         9.83
      0.0380         9.94
      0.0390         9.71
      0.0400         9.93
      0.0410         9.79
      0.0420         9.82
      0.0430         9.73
      0.0440         9.62
      0.0450         9.65
      0.0460         9.73
      0.0470         9.79
      0.0480         9.87
      0.0490        10.06
      0.0500        10.02
      0.0510         9.99
      0.0520        10.11
      0.0530        10.23
      0.0540        10.27
      0.0550        10.37
      0.0560        10.48
      0.0570        10.40
      0.0580        10.35
      0.0590        10.44
      0.0600        10.40
      0.0610        10.63
      0.0620        10.73
      0.0630        10.80
      0.0640        10.84
      0.0650        10.61
      0.0660        10.51
      0.0670        10.47
      0.0680        10.48
      0.0690        10.47
      0.0700        10.48
      0.0710        10.44
      0.0720        10.48
      0.0730        10.37
      0.0740        10.40
      0.0750        10.35
      0.0760        10.24
      0.0770        10.31
      0.0780        10.28
      0.0790        10.13
      0.0800        10.04
      0.0810         9.81
      0.0820         9.79
      0.0830         9.81
      0.0840         9.95
      0.0850        10.01
      0.0860         9.95
      0.0870         9.98
      0.0880         9.85
      0.0890         9.89
      0.0900         9.83
      0.0910         9.78
      0.0920         9.82
      0.0930         9.80
      0.0940         9.82
      0.0950         9.84
      0.0960         9.94
      0.0970        10.06
      0.0980        10.18
      0.0990        10.30
      0.1000        10.51
      0.1010        10.62
      0.1020        10.63
      0.1030        10.64
      0.1040        10.70
      0.1050        10.80
      0.1060        10.92
      0.1070        11.01
      0.1080        11.13
      0.1090        11.09
      0.1100        11.19
      0.1110        11.27
      0.1120        11.02
      0.1130        10.90
      0.1140        10.92
      0.1150        10.76
      0.1160        10.61
      0.1170        10.57
      0.1180        10.34
      0.1190        10.33
      0.1200        10.09
      0.1210         9.90
      0.1220         9.83
      0.1230         9.88
      0.1240         9.89
      0.1250         9.95
      0.1260         9.99
      0.1270         9.77
      0.1280         9.71
      0.1290         9.65
      0.1300         9.48
      0.1310         9.38
      0.1320         9.41
      0.1330         9.55
      0.1340         9.63
      0.1350         9.74
      0.1360        10.03
      0.1370         9.97
      0.1380        10.12
      0.1390        10.07
      0.1400        10.09
      0.1410        10.29
      0.1420        10.32
      0.1430        10.40
      0.1440        10.40
      0.1450        10.32
      0.1460        10.24
      0.1470        10.54
      0.1480        10.55
      0.1490        10.61
      0.1500        10.83
      0.1510        10.89
      0.1520        11.01
      0.1530        11.10
      0.1540        11.14
      0.1550        11.11
      0.1560        10.92
      0.1570        11.05
      0.1580        11.01
      0.1590        10.99
      0.1600        10.95
      0.1610        10.90
      0.1620        10.81
      0.1630        10.64
      0.1640        10.53
      0.1650        10.53
      0.1660        10.56
      0.1670        10.40
      0.1680        10.39
      0.1690        10.40
      0.1700        10.23
      0.1710        10.26
      0.1720        10.29
      0.1730        10.15
      0.1740        10.06
      0.1750        10.13
      0.1760        10.06
      0.1770         9.95
      0.1780         9.99
      0.1790        10.25
      0.1800        10.36
      0.1810        10.33
      0.1820        10.38
      0.1830        10.42
      0.1840        10.45
      0.1850        10.73
      0.1860        10.67
      0.1870        10.72
      0.1880        10.66
      0.1890        10.66
      0.1900        10.81
      0.1910        10.82
      0.1920        10.84
      0.1930        10.85
      0.1940        10.87
      0.1950        10.78
      0.1960        10.70
      0.1970        10.64
      0.1980        10.58
      0.1990        10.30
      0.2000        10.22
      0.2010        10.22
      0.2020        10.15
      0.2030        10.14
      0.2040         9.97
      0.2050         9.79
      0.2060         9.74
      0.2070         9.59
      0.2080         9.70
      0.2090         9.68
      0.2100         9.59
      0.2110         9.47
      0.2120         9.33
      0.2130         9.44
      0.2140         9.30
      0.2150         9.39
      0.2160         9.55
      0.2170         9.47
      0.2180         9.42
      0.2190         9.50
      0.2200         9.44
      0.2210         9.59
      0.2220         9.74
      0.2230         9.73
      0.2240        10.03
      0.2250        10.11
      0.2260        10.23
      0.2270        10.32
      0.2280        10.33
      0.2290        10.33
      0.2300        10.45
      0.2310        10.54
      0.2320        10.65
      0.2330        10.80
      0.2340        10.88
      0.2350        10.86
      0.2360        10.69
      0.2370        10.77
      0.2380        10.81
      0.2390        10.85
      0.2400        10.98
      0.2410        10.81
      0.2420        10.69
      0.2430        10.47
      0.2440        10.31
      0.2450        10.14
      0.2460        10.14
      0.2470         9.99
      0.2480         9.86
      0.2490         9.72
      0.2500         9.59
      0.2510         9.50
      0.2520         9.40
      0.2530         9.24
      0.2540         9.16
      0.2550         9.16
      0.2560         9.30
      0.2570         9.30
      0.2580         9.27
      0.2590         9.19
      0.2600         9.29
      0.2610         9.35
      0.2620         9.22
      0.2630         9.41
      0.2640         9.37
      0.2650         9.42
      0.2660         9.42
      0.2670         9.56
      0.2680         9.59
      0.2690         9.56
      0.2700         9.68
      0.2710         9.88
      0.2720         9.82
      0.2730         9.81
      0.2740         9.88
      0.2750         9.89
      0.2760         9.95
      0.2770         9.88
      0.2780         9.91
      0.2790        10.01
      0.2800         9.73
      0.2810         9.83
      0.2820         9.95
      0.2830         9.92
      0.2840         9.85
      0.2850         9.76
      0.2860         9.73
      0.2870         9.79
      0.2880         9.83
      0.2890         9.91
      0.2900         9.88
      0.2910         9.68
      0.2920         9.75
      0.2930         9.60
      0.2940         9.60
      0.2950         9.43
      0.2960         9.37
      0.2970         9.55
      0.2980         9.61
      0.2990         9.61
      0.3000         9.64
      0.3010         9.52
      0.3020         9.53
      0.3030         9.72
      0.3040         9.91
      0.3050        10.02
      0.3060        10.08
      0.3070        10.12
      0.3080        10.08
      0.3090        10.11
      0.3100        10.02
      0.3110        10.15
      0.3120        10.23
      0.3130        10.33
      0.3140        10.47
      0.3150        10.61
      0.3160        10.63
      0.3170        10.40
      0.3180        10.22
      0.3190        10.04
      0.3200        10.16
      0.3210        10.20
      0.3220        10.16
      0.3230        10.02
      0.3240         9.92
      0.3250         9.94
      0.3260         9.79
      0.3270         9.76
      0.3280         9.77
      0.3290         9.73
      0.3300         9.82
      0.3310         9.77
      0.3320         9.54
      0.3330         9.45
      0.3340         9.29
      0.3350         9.13
      0.3360         9.02
      0.3370         9.18
      0.3380         9.28
      0.3390         9.41
      0.3400         9.45
      0.3410         9.41
      0.3420         9.45
      0.3430         9.45
      0.3440         9.44
      0.3450         9.46
      0.3460         9.60
      0.3470         9.58
      0.3480         9.80
      0.3490         9.95
      0.3500         9.87
      0.3510         9.92
      0.3520        10.12
      0.3530        10.35
      0.3540        10.39
      0.3550        10.51
      0.3560        10.67
      0.3570        10.63
      0.3580        10.68
      0.3590        10.67
      0.3600        10.53
      0.3610        10.55
      0.3620        10.49
      0.3630        10.55
      0.3640        10.53
      0.3650        10.56
      0.3660        10.32
      0.3670        10.13
      0.3680         9.94
      0.3690         9.90
      0.3700         9.85
      0.3710         9.82
      0.3720         9.86
      0.3730         9.84
      0.3740         9.94
      0.3750        10.09
      0.3760        10.00
      0.3770         9.92
      0.3780         9.93
      0.3790         9.89
      0.3800        10.01
      0.3810        10.04
      0.3820        10.16
      0.3830        10.09
      0.3840        10.15
      0.3850        10.20
      0.3860        10.39
      0.3870        10.71
      0.3880        10.83
      0.3890        10.87
      0.3900        11.09
      0.3910        11.08
      0.3920        11.01
      0.3930        10.98
      0.3940        10.77
      0.3950        10.54
      0.3960        10.64
      0.3970        10.90
      0.3980        10.95
      0.3990        10.99
      0.4000        11.06
      0.4010        11.11
      0.4020        10.94
      0.4030        10.90
      0.4040        10.84
      0.4050        10.66
      0.4060        10.62
      0.4070        10.37
      0.4080        10.17
      0.4090        10.09
      0.4100         9.97
      0.4110         9.93
      0.4120         9.94
      0.4130         9.92
      0.4140         9.94
      0.4150        10.05
      0.4160         9.97
      0.4170         9.75
      0.4180         9.65
      0.4190         9.77
      0.4200         9.75
      0.4210         9.89
      0.4220        10.07
      0.4230        10.18
      0.4240        10.36
      0.4250        10.48
      0.4260        10.51
      0.4270        10.66
      0.4280        10.80
      0.4290        10.76
      0.4300        10.86
      0.4310        10.91
      0.4320        10.98
      0.4330        10.99
      0.4340        11.11
      0.4350        11.21
      0.4360        11.21
      0.4370        11.18
      0.4380        11.32
      0.4390        11.29
      0.4400        11.18
      0.4410        11.01
      0.4420        10.89
      0.4430        10.82
      0.4440        10.48
      0.4450        10.32
      0.4460        10.37
      0.4470        10.32
      0.4480        10.16
      0.4490        10.21
      0.4500        10.04
      0.4510         9.93
      0.4520         9.85
      0.4530         9.68
      0.4540         9.61
      0.4550         9.41
      0.4560         9.33
      0.4570         9.23
      0.4580         9.06
      0.4590         9.01
      0.4600         8.99
      0.4610         8.89
      0.4620         8.97
      0.4630         9.02
      0.4640         9.20
      0.4650         9.41
      0.4660         9.46
      0.4670         9.41
      0.4680         9.58
      0.4690         9.54
      0.4700         9.60
      0.4710         9.67
      0.4720         9.75
      0.4730         9.88
      0.4740         9.95
      0.4750        10.29
      0.4760        10.45
      0.4770        10.54
      0.4780        10.61
      0.4790        10.65
      0.4800        10.67
      0.4810        10.81
      0.4820        10.81
      0.4830        10.77
      0.4840        10.71
      0.4850        10.58
      0.4860        10.44
      0.4870        10.53
      0.4880        10.61
      0.4890        10.57
      0.4900        10.52
      0.4910        10.48
      0.4920        10.32
      0.4930        10.35
      0.4940        10.20
      0.4950        10.08
      0.4960         9.92
      0.4970         9.97
      0.4980        10.03
      0.4990        10.00
      0.5000         9.98
      0.5010         9.90
      0.5020         9.87
      0.5030         9.95
      0.5040         9.90
      0.5050         9.95
      0.5060        10.03
      0.5070         9.98
      0.5080         9.80
      0.5090         9.92
      0.5100        10.10
      0.5110        10.11
      0.5120        10.17
      0.5130        10.18
      0.5140        10.10
      0.5150        10.13
      0.5160        10.23
      0.5170        10.17
      0.5180        10.14
      0.5190        10.09
      0.5200        10.15
      0.5210        10.21
      0.5220        10.31
      0.5230        10.23
      0.5240        10.25
      0.5250        10.25
      0.5260        10.28
      0.5270        10.14
      0.5280        10.21
      0.5290        10.06
      0.5300         9.89
      0.5310         9.94
      0.5320         9.99
      0.5330         9.97
      0.5340        10.11
      0.5350         9.95
      0.5360         9.91
      0.5370         9.88
      0.5380         9.84
      0.5390         9.84
      0.5400         9.68
      0.5410         9.65
      0.5420         9.61
      0.5430         9.67
      0.5440         9.85
      0.5450         9.84
      0.5460         9.82
      0.5470         9.95
      0.5480         9.91
      0.5490        10.05
      0.5500        10.16
      0.5510        10.14
      0.5520        10.19
      0.5530        10.37
      0.5540        10.45
      0.5550        10.56
      0.5560        10.66
      0.5570        10.74
      0.5580        10.73
      0.5590        11.07
      0.5600        11.22
      0.5610        11.20
      0.5620        11.02
      0.5630        10.92
      0.5640        10.88
      0.5650        10.96
      0.5660        10.98
      0.5670        10.93
      0.5680        10.90
      0.5690        10.91
      0.5700        10.87
      0.5710        10.94
      0.5720        10.91
      0.5730        10.81
      0.5740        10.77
      0.5750        10.69
      0.5760        10.51
      0.5770        10.57
      0.5780        10.61
      0.5790        10.40
      0.5800        10.30
      0.5810        10.22
      0.5820        10.45
      0.5830        10.65
      0.5840        10.68
      0.5850        10.61
      0.5860        10.64
      0.5870        10.84
      0.5880        10.86
      0.5890        10.86
      0.5900        10.89
      0.5910        11.05
      0.5920        11.05
      0.5930        11.03
      0.5940        11.10
      0.5950        11.29
      0.5960        11.46
      0.5970        11.44
      0.5980        11.50
      0.5990        11.35
      0.6000        11.45
      0.6010        11.85
      0.6020        11.66
      0.6030        11.49
      0.6040        11.53
      0.6050        11.65
      0.6060        11.65
      0.6070        11.50
      0.6080        11.57
      0.6090        11.52
      0.6100        11.53
      0.6110        11.37
      0.6120        11.40
      0.6130        11.28
      0.6140        11.23
      0.6150        11.01
      0.6160        11.00
      0.6170        10.97
      0.6180        10.81
      0.6190        10.93
      0.6200        10.93
      0.6210        10.66
      0.6220        10.87
      0.6230        10.89
      0.6240        10.84
      0.6250        10.73
      0.6260        10.64
      0.6270        10.74
      0.6280        10.68
      0.6290        10.87
      0.6300        10.92
      0.6310        10.91
      0.6320        10.80
      0.6330        10.96
      0.6340        10.93
      0.6350        11.08
      0.6360        11.04
      0.6370        11.07
      0.6380        11.24
      0.6390        11.24
      0.6400        11.23
      0.6410        11.38
      0.6420        11.37
      0.6430        11.43
      0.6440        11.44
      0.6450        11.52
      0.6460        11.51
      0.6470        11.55
      0.6480        11.55
      0.6490        11.34
      0.6500        11.27
      0.6510        11.22
      0.6520        11.35
      0.6530        11.37
      0.6540        11.42
      0.6550        11.35
      0.6560        11.41
      0.6570        11.50
      0.6580        11.62
      0.6590        11.65
      0.6600        11.66
      0.6610        11.49
      0.6620        11.49
      0.6630        11.61
      0.6640        11.61
      0.6650        11.49
      0.6660        11.50
      0.6670        11.55
      0.6680        11.55
      0.6690        11.59
      0.6700        11.70
      0.6710        11.81
      0.6720        11.72
      0.6730        11.68
      0.6740        11.72
      0.6750        11.76
      0.6760        11.76
      0.6770        11.79
      0.6780        11.80
      0.6790        11.85
      0.6800        11.88
      0.6810        12.08
      0.6820        12.07
      0.6830        11.93
      0.6840        11.87
      0.6850        11.91
      0.6860        12.12
      0.6870        12.08
      0.6880        12.21
      0.6890        12.29
      0.6900        12.32
      0.6910        12.31
      0.6920        12.39
      0.6930        12.35
      0.6940        12.33
      0.6950        12.19
      0.6960        12.22
      0.6970        12.24
      0.6980        12.13
      0.6990        12.00
      0.7000        12.17
      0.7010        12.03
      0.7020        12.10
      0.7030        12.10
      0.7040        12.25
      0.7050        12.36
      0.7060        12.34
      0.7070        12.26
      0.7080        12.32
      0.7090        12.32
      0.7100        12.29
      0.7110        12.25
      0.7120        12.29
      0.7130        12.44
      0.7140        12.60
      0.7150        12.74
      0.7160        12.86
      0.7170        12.87
      0.7180        12.95
      0.7190        13.08
      0.7200        13.15
      0.7210        13.23
      0.7220        13.27
      0.7230        13.46
      0.7240        13.48
      0.7250        13.48
      0.7260        13.43
      0.7270        13.48
      0.7280        13.45
      0.7290        13.63
      0.7300        13.57
      0.7310        13.64
      0.7320        13.69
      0.7330        13.66
      0.7340        13.66
      0.7350        13.77
      0.7360        13.72
      0.7370        13.72
      0.7380        13.79
      0.7390        13.76
      0.7400        13.67
      0.7410        13.73
      0.7420        13.68
      0.7430        13.56
      0.7440        13.56
      0.7450        13.60
      0.7460        13.53
      0.7470        13.56
      0.7480        13.49
      0.7490        13.21
      0.7500        13.20
      0.7510        13.40
      0.7520        13.37
      0.7530        13.40
      0.7540        13.37
      0.7550        13.36
      0.7560        13.38
      0.7570        13.36
      0.7580        13.45
      0.7590        13.55
      0.7600        13.69
      0.7610        13.71
      0.7620        13.82
      0.7630        13.95
      0.7640        14.13
      0.7650        14.12
      0.7660        14.24
      0.7670        14.32
