        Time   Palpation Force
      0.0000         1.00
      0.0010         1.00
      0.0020         1.00
      0.0030         1.01
      0.0040         1.34
      0.0050         1.70
      0.0060         1.89
      0.0070         2.12
      0.0080         2.46
      0.0090         2.71
      0.0100         2.99
      0.0110         3.19
      0.0120         3.45
      0.0130         3.77
      0.0140         4.07
      0.0150         4.33
      0.0160         4.58
      0.0170         4.84
      0.0180         5.12
      0.0190         5.38
      0.0200         5.38
      0.0210         5.34
      0.0220         5.34
      0.0230         5.33
      0.0240         5.21
      0.0250         5.10
      0.0260         5.20
      0.0270         5.17
      0.0280         5.13
      0.0290         5.16
      0.0300         5.14
      0.0310         5.22
      0.0320         5.19
      0.0330         5.25
      0.0340         5.21
      0.0350         5.18
      0.0360         5.29
      0.0370         5.27
      0.0380         5.28
      0.0390         5.29
      0.0400         5.33
      0.0410         5.37
      0.0420         5.46
      0.0430         5.48
      0.0440         5.57
      0.0450         5.48
      0.0460         5.45
      0.0470         5.48
      0.0480         5.46
      0.0490         5.42
      0.0500         5.40
      0.0510         5.50
      0.0520         5.49
      0.0530         5.37
      0.0540         5.42
      0.0550         5.45
      0.0560         5.37
      0.0570         5.41
      0.0580         5.37
      0.0590         5.37
      0.0600         5.40
      0.0610         5.44
      0.0620         5.43
      0.0630         5.41
      0.0640         5.44
      0.0650         5.60
      0.0660         5.61
      0.0670         5.65
      0.0680         5.59
      0.0690         5.66
      0.0700         5.67
      0.0710         5.53
      0.0720         5.61
      0.0730         5.65
      0.0740         5.59
      0.0750         5.58
      0.0760         5.54
      0.0770         5.58
      0.0780         5.56
      0.0790         5.51
      0.0800         5.59
      0.0810         5.60
      0.0820         5.52
      0.0830         5.51
      0.0840         5.45
      0.0850         5.42
      0.0860         5.44
      0.0870         5.38
      0.0880         5.49
      0.0890         5.53
      0.0900         5.59
      0.0910         5.62
      0.0920         5.54
      0.0930         5.54
      0.0940         5.59
      0.0950         5.62
      0.0960         5.60
      0.0970         5.52
      0.0980         5.55
      0.0990         5.59
      0.1000         5.48
      0.1010         5.42
      0.1020         5.51
      0.1030         5.54
      0.1040         5.51
      0.1050         5.48
      0.1060         5.44
      0.1070         5.54
      0.1080         5.41
      0.1090         5.33
      0.1100         5.23
      0.1110         5.30
      0.1120         5.39
      0.1130         5.41
      0.1140         5.41
      0.1150         5.39
      0.1160         5.43
      0.1170         5.45
      0.1180         5.50
      0.1190         5.57
      0.1200         5.60
      0.1210         5.68
      0.1220         5.68
      0.1230         5.64
      0.1240         5.75
      0.1250         5.83
      0.1260         5.83
      0.1270         5.84
      0.1280         5.83
      0.1290         5.81
      0.1300         5.81
      0.1310         5.71
      0.1320         5.61
      0.1330         5.60
      0.1340         5.57
      0.1350         5.59
      0.1360         5.57
      0.1370         5.57
      0.1380         5.53
      0.1390         5.49
      0.1400         5.36
      0.1410         5.25
      0.1420         5.10
      0.1430         5.17
      0.1440         5.06
      0.1450         5.04
      0.1460         5.13
      0.1470         5.05
      0.1480         5.12
      0.1490         5.18
      0.1500         5.25
      0.1510         5.36
      0.1520         5.38
      0.1530         5.41
      0.1540         5.37
      0.1550         5.39
      0.1560         5.36
      0.1570         5.37
      0.1580         5.37
      0.1590         5.44
      0.1600         5.52
      0.1610         5.52
      0.1620         5.63
      0.1630         5.56
      0.1640         5.56
      0.1650         5.53
      0.1660         5.45
      0.1670         5.41
      0.1680         5.40
      0.1690         5.34
      0.1700         5.29
      0.1710         5.21
      0.1720         5.25
      0.1730         5.22
      0.1740         5.32
      0.1750         5.29
      0.1760         5.40
      0.1770         5.41
      0.1780         5.47
      0.1790         5.43
      0.1800         5.48
      0.1810         5.53
      0.1820         5.54
      0.1830         5.64
      0.1840         5.70
      0.1850         5.65
      0.1860         5.73
      0.1870         5.85
      0.1880         5.90
      0.1890         5.84
      0.1900         5.84
      0.1910         5.89
      0.1920         5.88
      0.1930         5.86
      0.1940         5.77
      0.1950         5.73
      0.1960         5.66
      0.1970         5.68
      0.1980         5.64
      0.1990         5.54
      0.2000         5.49
      0.2010         5.49
      0.2020         5.46
      0.2030         5.33
      0.2040         5.33
      0.2050         5.40
      0.2060         5.42
      0.2070         5.41
      0.2080         5.34
      0.2090         5.50
      0.2100         5.60
      0.2110         5.52
      0.2120         5.56
      0.2130         5.57
      0.2140         5.62
      0.2150         5.70
      0.2160         5.67
      0.2170         5.71
      0.2180         5.65
      0.2190         5.70
      0.2200         5.74
      0.2210         5.78
      0.2220         5.74
      0.2230         5.84
      0.2240         5.72
      0.2250         5.68
      0.2260         5.60
      0.2270         5.64
      0.2280         5.64
      0.2290         5.57
      0.2300         5.49
      0.2310         5.49
      0.2320         5.43
      0.2330         5.47
      0.2340         5.52
      0.2350         5.47
      0.2360         5.51
      0.2370         5.45
      0.2380         5.51
      0.2390         5.51
      0.2400         5.49
      0.2410         5.53
      0.2420         5.61
      0.2430         5.53
      0.2440         5.56
      0.2450         5.57
      0.2460         5.45
      0.2470         5.45
      0.2480         5.49
      0.2490         5.50
      0.2500         5.46
      0.2510         5.35
      0.2520         5.40
      0.2530         5.24
      0.2540         5.12
      0.2550         5.11
      0.2560         5.06
      0.2570         5.07
      0.2580         5.11
      0.2590         5.08
      0.2600         5.01
      0.2610         4.93
      0.2620         4.97
      0.2630         5.00
      0.2640         5.04
      0.2650         5.20
      0.2660         5.32
      0.2670         5.32
      0.2680         5.29
      0.2690         5.35
      0.2700         5.53
      0.2710         5.67
      0.2720         5.65
      0.2730         5.81
      0.2740         5.79
      0.2750         5.79
      0.2760         5.83
      0.2770         5.75
      0.2780         5.73
      0.2790         5.76
      0.2800         5.71
      0.2810         5.71
      0.2820         5.55
      0.2830         5.57
      0.2840         5.57
      0.2850         5.43
      0.2860         5.43
      0.2870         5.31
      0.2880         5.42
      0.2890         5.32
      0.2900         5.17
      0.2910         5.23
      0.2920         5.26
      0.2930         5.20
      0.2940         5.30
      0.2950         5.35
      0.2960         5.37
      0.2970         5.40
      0.2980         5.42
      0.2990         5.40
      0.3000         5.54
      0.3010         5.52
      0.3020         5.62
      0.3030         5.65
      0.3040         5.69
      0.3050         5.65
      0.3060         5.64
      0.3070         5.66
      0.3080         5.58
      0.3090         5.58
      0.3100         5.63
      0.3110         5.56
      0.3120         5.45
      0.3130         5.36
      0.3140         5.26
      0.3150         5.24
      0.3160         5.22
      0.3170         5.25
      0.3180         5.19
      0.3190         5.25
      0.3200         5.17
      0.3210         5.21
      0.3220         5.14
      0.3230         5.14
      0.3240         5.07
      0.3250         5.15
      0.3260         5.17
      0.3270         5.28
      0.3280         5.25
      0.3290         5.20
      0.3300         5.17
      0.3310         5.28
      0.3320         5.46
      0.3330         5.60
      0.3340         5.62
      0.3350         5.66
      0.3360         5.67
      0.3370         5.62
      0.3380         5.51
      0.3390         5.34
      0.3400         5.42
      0.3410         5.37
      0.3420         5.41
      0.3430         5.30
      0.3440         5.30
      0.3450         5.20
      0.3460         5.12
      0.3470         5.00
      0.3480         5.04
      0.3490         5.15
      0.3500         5.16
      0.3510         5.09
      0.3520         4.97
      0.3530         4.89
      0.3540         4.95
      0.3550         4.99
      0.3560         4.95
      0.3570         4.99
      0.3580         5.08
      0.3590         5.30
      0.3600         5.29
      0.3610         5.33
      0.3620         5.37
      0.3630         5.47
      0.3640         5.45
      0.3650         5.46
      0.3660         5.49
      0.3670         5.53
      0.3680         5.49
      0.3690         5.37
      0.3700         5.35
      0.3710         5.26
      0.3720         5.29
      0.3730         5.30
      0.3740         5.20
      0.3750         5.16
      0.3760         5.19
      0.3770         5.25
      0.3780         5.23
      0.3790         5.15
      0.3800         5.13
      0.3810         5.12
      0.3820         5.09
      0.3830         5.09
      0.3840         5.22
      0.3850         5.28
      0.3860         5.34
      0.3870         5.35
      0.3880         5.49
      0.3890         5.59
      0.3900         5.67
      0.3910         5.78
      0.3920         5.74
      0.3930         5.74
      0.3940         5.75
      0.3950         5.71
      0.3960         5.75
      0.3970         5.68
      0.3980         5.74
      0.3990         5.76
      0.4000         5.72
      0.4010         5.70
      0.4020         5.78
      0.4030         5.70
      0.4040         5.63
      0.4050         5.70
      0.4060         5.69
      0.4070         5.66
      0.4080         5.63
      0.4090         5.61
      0.4100         5.55
      0.4110         5.52
      0.4120         5.62
      0.4130         5.76
      0.4140         5.83
      0.4150         5.88
      0.4160         5.92
      0.4170         5.99
      0.4180         6.05
      0.4190         6.08
      0.4200         6.16
      0.4210         6.27
      0.4220         6.19
      0.4230         6.31
      0.4240         6.34
      0.4250         6.26
      0.4260         6.16
      0.4270         6.23
      0.4280         6.10
      0.4290         6.14
      0.4300         6.26
      0.4310         6.25
      0.4320         6.18
      0.4330         6.13
      0.4340         6.18
      0.4350         6.14
      0.4360         6.08
      0.4370         6.09
      0.4380         6.07
      0.4390         6.04
      0.4400         6.05
      0.4410         6.04
      0.4420         6.04
      0.4430         6.07
      0.4440         6.12
      0.4450         6.36
      0.4460         6.44
      0.4470         6.46
      0.4480         6.52
      0.4490         6.59
      0.4500         7.16
      0.4510         7.25
      0.4520         7.45
      0.4530         7.43
      0.4540         7.45
      0.4550         7.55
      0.4560         7.56
      0.4570         7.47
      0.4580         6.92
      0.4590         6.92
      0.4600         6.87
      0.4610         6.86
      0.4620         6.87
      0.4630         6.80
      0.4640         6.72
      0.4650         6.57
      0.4660         6.63
      0.4670         6.58
      0.4680         6.69
      0.4690         6.63
      0.4700         6.52
      0.4710         6.45
      0.4720         6.30
      0.4730         6.78
      0.4740         6.81
      0.4750         6.76
      0.4760         6.68
      0.4770         6.79
      0.4780         6.87
      0.4790         6.99
      0.4800         7.06
      0.4810         7.13
      0.4820         7.23
      0.4830         7.23
      0.4840         7.22
      0.4850         7.17
      0.4860         7.15
      0.4870         7.20
      0.4880         7.17
      0.4890         7.20
      0.4900         7.06
      0.4910         6.43
      0.4920         6.40
      0.4930         6.50
      0.4940         6.44
      0.4950         6.55
      0.4960         6.64
      0.4970         7.16
      0.4980         7.11
      0.4990         7.12
      0.5000         7.23
      0.5010         7.16
      0.5020         7.17
      0.5030         7.25
      0.5040         7.24
      0.5050         7.32
      0.5060         7.41
      0.5070         7.44
      0.5080         7.40
      0.5090         7.46
      0.5100         7.61
      0.5110         7.72
      0.5120         7.70
      0.5130         7.70
      0.5140         7.74
      0.5150         7.73
      0.5160         7.70
      0.5170         7.70
      0.5180         7.76
      0.5190         7.68
      0.5200         7.61
      0.5210         7.62
      0.5220         7.62
      0.5230         7.65
      0.5240         7.73
      0.5250         7.73
      0.5260         7.74
      0.5270         7.78
      0.5280         7.93
      0.5290         7.88
      0.5300         7.87
      0.5310         7.97
      0.5320         8.18
      0.5330         8.77
      0.5340         8.33
      0.5350         8.29
      0.5360         8.36
      0.5370         8.34
      0.5380         8.34
      0.5390         8.46
      0.5400         8.49
      0.5410         8.57
      0.5420         8.49
      0.5430         8.40
      0.5440         8.40
      0.5450         8.38
      0.5460         8.25
      0.5470         8.34
      0.5480         8.30
      0.5490         8.21
      0.5500         8.21
      0.5510         8.23
      0.5520         8.16
      0.5530         8.12
      0.5540         8.11
      0.5550         8.28
      0.5560         8.21
      0.5570         8.36
      0.5580         8.52
      0.5590         8.57
      0.5600         8.72
      0.5610         8.77
      0.5620         8.96
      0.5630         9.09
      0.5640         9.28
      0.5650         9.36
      0.5660         9.59
      0.5670         9.61
      0.5680         9.68
      0.5690         9.88
      0.5700         9.93
      0.5710        10.03
      0.5720         9.99
      0.5730        10.13
      0.5740        10.11
      0.5750         9.98
      0.5760        10.12
      0.5770        10.13
      0.5780        10.17
      0.5790        10.64
      0.5800        10.69
      0.5810        10.75
      0.5820        10.88
      0.5830        10.91
      0.5840        10.74
      0.5850        10.93
      0.5860        10.78
      0.5870        10.84
      0.5880        10.96
      0.5890        10.95
      0.5900        11.04
      0.5910        11.12
      0.5920        10.83
      0.5930        10.86
      0.5940        11.05
      0.5950        11.19
      0.5960        11.24
      0.5970        11.20
      0.5980        11.19
      0.5990        11.36
      0.6000        11.33
      0.6010        11.32
      0.6020        11.29
      0.6030        11.36
      0.6040        12.00
      0.6050        11.92
      0.6060        12.04
      0.6070        12.16
      0.6080        12.09
      0.6090        12.19
      0.6100        12.20
      0.6110        12.21
      0.6120        12.21
      0.6130        12.36
      0.6140        12.41
      0.6150        12.47
      0.6160        12.63
      0.6170        12.77
      0.6180        12.98
      0.6190        12.94
      0.6200        13.09
      0.6210        13.31
      0.6220        13.46
      0.6230        13.54
      0.6240        13.63
      0.6250        13.66
      0.6260        13.93
      0.6270        13.95
      0.6280        14.10
      0.6290        14.13
      0.6300        14.22
      0.6310        14.33
      0.6320        14.40
      0.6330        14.25
      0.6340        14.21
      0.6350        14.35
      0.6360        14.35
      0.6370        14.44
      0.6380        14.40
      0.6390        14.51
      0.6400        14.39
      0.6410        14.34
      0.6420        14.39
      0.6430        14.45
      0.6440        14.43
      0.6450        14.61
      0.6460        14.58
      0.6470        14.68
      0.6480        14.82
      0.6490        14.97
      0.6500        15.03
      0.6510        15.01
      0.6520        15.14
      0.6530        15.28
      0.6540        15.53
      0.6550        15.60
      0.6560        15.64
      0.6570        15.73
      0.6580        15.84
      0.6590        15.92
      0.6600        15.99
      0.6610        16.09
      0.6620        16.21
      0.6630        16.27
      0.6640        16.40
      0.6650        16.36
      0.6660        16.42
      0.6670        16.46
      0.6680        16.47
      0.6690        16.58
      0.6700        16.73
      0.6710        16.82
      0.6720        16.75
      0.6730        16.80
      0.6740        16.80
      0.6750        16.86
      0.6760        16.93
      0.6770        17.02
      0.6780        17.04
      0.6790        17.17
      0.6800        17.37
      0.6810        17.54
      0.6820        17.65
      0.6830        17.77
      0.6840        17.89
      0.6850        18.01
      0.6860        18.07
      0.6870        18.07
      0.6880        18.09
      0.6890        18.01
      0.6900        17.99
      0.6910        18.04
      0.6920        18.13
      0.6930        18.21
      0.6940        18.21
      0.6950        18.24
      0.6960        18.34
      0.6970        18.32
      0.6980        18.46
      0.6990        18.43
      0.7000        18.47
      0.7010        18.42
      0.7020        18.43
      0.7030        18.38
      0.7040        18.34
      0.7050        18.42
      0.7060        18.44
      0.7070        18.51
      0.7080        18.56
      0.7090        18.71
      0.7100        18.79
      0.7110        18.87
      0.7120        18.88
      0.7130        18.98
      0.7140        19.00
      0.7150        19.10
      0.7160        19.23
      0.7170        19.40
      0.7180        19.40
      0.7190        19.50
      0.7200        19.56
      0.7210        19.70
      0.7220        19.66
      0.7230        19.83
      0.7240        19.83
      0.7250        19.87
      0.7260        19.86
      0.7270        19.90
      0.7280        19.90
      0.7290        19.94
      0.7300        20.06
      0.7310        20.09
      0.7320        20.29
      0.7330        20.46
      0.7340        20.65
      0.7350        20.74
      0.7360        20.67
      0.7370        20.68
      0.7380        20.79
      0.7390        20.84
      0.7400        20.83
      0.7410        20.81
      0.7420        20.89
      0.7430        20.89
      0.7440        21.02
      0.7450        21.03
      0.7460        21.17
      0.7470        21.26
      0.7480        21.36
      0.7490        21.41
      0.7500        21.42
      0.7510        21.48
      0.7520        21.43
      0.7530        21.30
      0.7540        21.27
      0.7550        21.23
      0.7560        21.29
      0.7570        21.36
      0.7580        21.35
      0.7590        21.26
      0.7600        21.35
      0.7610        21.41
      0.7620        21.51
      0.7630        21.51
      0.7640        21.63
      0.7650        21.75
      0.7660        21.82
      0.7670        21.79
