        Time   Palpation Force
      0.0000         1.00
      0.0010         1.00
      0.0020         1.00
      0.0030         1.00
      0.0040         1.17
      0.0050         1.49
      0.0060         1.78
      0.0070         2.01
      0.0080         2.28
      0.0090         2.58
      0.0100         2.80
      0.0110         3.03
      0.0120         3.35
      0.0130         3.57
      0.0140         3.85
      0.0150         4.04
      0.0160         4.26
      0.0170         4.48
      0.0180         4.70
      0.0190         4.95
      0.0200         5.03
      0.0210         5.05
      0.0220         5.17
      0.0230         5.17
      0.0240         5.11
      0.0250         5.02
      0.0260         4.97
      0.0270         4.99
      0.0280         4.93
      0.0290         4.86
      0.0300         4.92
      0.0310         4.90
      0.0320         4.85
      0.0330         4.88
      0.0340         4.87
      0.0350         4.96
      0.0360         5.00
      0.0370         5.10
      0.0380         5.12
      0.0390         5.11
      0.0400         5.03
      0.0410         4.99
      0.0420         4.96
      0.0430         4.88
      0.0440         4.80
      0.0450         4.79
      0.0460         4.74
      0.0470         4.75
      0.0480         4.73
      0.0490         4.70
      0.0500         4.64
      0.0510         4.65
      0.0520         4.67
      0.0530         4.65
      0.0540         4.63
      0.0550         4.63
      0.0560         4.55
      0.0570         4.49
      0.0580         4.42
      0.0590         4.46
      0.0600         4.53
      0.0610         4.57
      0.0620         4.55
      0.0630         4.62
      0.0640         4.73
      0.0650         4.77
      0.0660         4.82
      0.0670         4.80
      0.0680         4.82
      0.0690         4.88
      0.0700         4.91
      0.0710         4.85
      0.0720         4.84
      0.0730         4.77
      0.0740         4.67
      0.0750         4.61
      0.0760         4.69
      0.0770         4.66
      0.0780         4.70
      0.0790         4.62
      0.0800         4.50
      0.0810         4.42
      0.0820         4.33
      0.0830         4.32
      0.0840         4.30
      0.0850         4.27
      0.0860         4.30
      0.0870         4.31
      0.0880         4.37
      0.0890         4.33
      0.0900         4.39
      0.0910         4.51
      0.0920         4.49
      0.0930         4.61
      0.0940         4.73
      0.0950         4.74
      0.0960         4.65
      0.0970         4.68
      0.0980         4.61
      0.0990         4.62
      0.1000         4.69
      0.1010         4.74
      0.1020         4.77
      0.1030         4.77
      0.1040         4.75
      0.1050         4.71
      0.1060         4.67
      0.1070         4.66
      0.1080         4.67
      0.1090         4.66
      0.1100         4.56
      0.1110         4.57
      0.1120         4.56
      0.1130         4.56
      0.1140         4.52
      0.1150         4.49
      0.1160         4.56
      0.1170         4.59
      0.1180         4.65
      0.1190         4.67
      0.1200         4.65
      0.1210         4.64
      0.1220         4.76
      0.1230         4.72
      0.1240         4.77
      0.1250         4.82
      0.1260         4.88
      0.1270         4.85
      0.1280         4.82
      0.1290         4.83
      0.1300         4.77
      0.1310         4.66
      0.1320         4.70
      0.1330         4.67
      0.1340         4.74
      0.1350         4.74
      0.1360         4.83
      0.1370         4.76
      0.1380         4.75
      0.1390         4.72
      0.1400         4.70
      0.1410         4.70
      0.1420         4.63
      0.1430         4.61
      0.1440         4.59
      0.1450         4.57
      0.1460         4.57
      0.1470         4.69
      0.1480         4.69
      0.1490         4.65
      0.1500         4.78
      0.1510         4.87
      0.1520         4.88
      0.1530         4.85
      0.1540         4.83
      0.1550         4.83
      0.1560         4.73
      0.1570         4.83
      0.1580         4.79
      0.1590         4.79
      0.1600         4.80
      0.1610         4.78
      0.1620         4.75
      0.1630         4.75
      0.1640         4.77
      0.1650         4.71
      0.1660         4.61
      0.1670         4.53
      0.1680         4.55
      0.1690         4.61
      0.1700         4.47
      0.1710         4.47
      0.1720         4.41
      0.1730         4.35
      0.1740         4.33
      0.1750         4.41
      0.1760         4.39
      0.1770         4.43
      0.1780         4.58
      0.1790         4.73
      0.1800         4.74
      0.1810         4.74
      0.1820         4.73
      0.1830         4.82
      0.1840         4.85
      0.1850         4.95
      0.1860         5.05
      0.1870         4.98
      0.1880         4.94
      0.1890         4.87
      0.1900         4.97
      0.1910         4.94
      0.1920         4.88
      0.1930         4.96
      0.1940         4.94
      0.1950         4.87
      0.1960         4.97
      0.1970         4.94
      0.1980         4.82
      0.1990         4.73
      0.2000         4.70
      0.2010         4.81
      0.2020         4.90
      0.2030         4.93
      0.2040         4.91
      0.2050         4.91
      0.2060         4.95
      0.2070         5.06
      0.2080         5.03
      0.2090         5.11
      0.2100         5.07
      0.2110         5.13
      0.2120         5.17
      0.2130         5.14
      0.2140         5.15
      0.2150         5.18
      0.2160         5.10
      0.2170         4.98
      0.2180         5.05
      0.2190         4.98
      0.2200         5.06
      0.2210         5.05
      0.2220         4.98
      0.2230         4.92
      0.2240         4.89
      0.2250         4.89
      0.2260         4.81
      0.2270         4.72
      0.2280         4.84
      0.2290         4.88
      0.2300         4.95
      0.2310         4.87
      0.2320         4.86
      0.2330         4.87
      0.2340         4.91
      0.2350         4.91
      0.2360         4.91
      0.2370         5.03
      0.2380         5.01
      0.2390         5.06
      0.2400         5.02
      0.2410         5.00
      0.2420         5.01
      0.2430         5.02
      0.2440         4.97
      0.2450         4.88
      0.2460         4.93
      0.2470         4.98
      0.2480         4.92
      0.2490         4.86
      0.2500         4.80
      0.2510         4.80
      0.2520         4.77
      0.2530         4.89
      0.2540         4.88
      0.2550         4.77
      0.2560         4.69
      0.2570         4.62
      0.2580         4.55
      0.2590         4.55
      0.2600         4.52
      0.2610         4.54
      0.2620         4.58
      0.2630         4.56
      0.2640         4.56
      0.2650         4.66
      0.2660         4.71
      0.2670         4.61
      0.2680         4.59
      0.2690         4.59
      0.2700         4.63
      0.2710         4.61
      0.2720         4.69
      0.2730         4.56
      0.2740         4.56
      0.2750         4.63
      0.2760         4.75
      0.2770         4.68
      0.2780         4.69
      0.2790         4.64
      0.2800         4.68
      0.2810         4.68
      0.2820         4.65
      0.2830         4.63
      0.2840         4.65
      0.2850         4.60
      0.2860         4.57
      0.2870         4.63
      0.2880         4.66
      0.2890         4.64
      0.2900         4.64
      0.2910         4.68
      0.2920         4.66
      0.2930         4.70
      0.2940         4.81
      0.2950         4.77
      0.2960         4.77
      0.2970         4.80
      0.2980         4.92
      0.2990         4.98
      0.3000         4.97
      0.3010         4.94
      0.3020         4.97
      0.3030         4.98
      0.3040         4.98
      0.3050         5.06
      0.3060         5.01
      0.3070         5.04
      0.3080         4.96
      0.3090         5.01
      0.3100         5.01
      0.3110         4.93
      0.3120         4.95
      0.3130         4.91
      0.3140         4.80
      0.3150         4.79
      0.3160         4.76
      0.3170         4.81
      0.3180         4.72
      0.3190         4.70
      0.3200         4.77
      0.3210         4.78
      0.3220         4.81
      0.3230         4.90
      0.3240         4.86
      0.3250         4.85
      0.3260         4.82
      0.3270         4.85
      0.3280         4.93
      0.3290         4.94
      0.3300         4.90
      0.3310         4.94
      0.3320         4.87
      0.3330         4.92
      0.3340         4.83
      0.3350         4.88
      0.3360         4.87
      0.3370         4.91
      0.3380         4.87
      0.3390         4.81
      0.3400         4.77
      0.3410         4.73
      0.3420         4.71
      0.3430         4.62
      0.3440         4.65
      0.3450         4.61
      0.3460         4.68
      0.3470         4.66
      0.3480         4.69
      0.3490         4.65
      0.3500         4.65
      0.3510         4.66
      0.3520         4.77
      0.3530         4.70
      0.3540         4.82
      0.3550         4.92
      0.3560         5.00
      0.3570         4.92
      0.3580         5.03
      0.3590         5.05
      0.3600         5.04
      0.3610         5.04
      0.3620         5.09
      0.3630         5.05
      0.3640         5.08
      0.3650         5.10
      0.3660         5.05
      0.3670         4.98
      0.3680         4.84
      0.3690         4.84
      0.3700         4.83
      0.3710         4.85
      0.3720         4.83
      0.3730         4.96
      0.3740         4.84
      0.3750         4.77
      0.3760         4.65
      0.3770         5.22
      0.3780         5.16
      0.3790         5.16
      0.3800         4.67
      0.3810         4.79
      0.3820         4.71
      0.3830         4.75
      0.3840         4.77
      0.3850         4.72
      0.3860         4.69
      0.3870         4.76
      0.3880         4.83
      0.3890         4.79
      0.3900         4.84
      0.3910         4.81
      0.3920         4.83
      0.3930         4.82
      0.3940         4.86
      0.3950         4.86
      0.3960         4.90
      0.3970         4.88
      0.3980         4.97
      0.3990         4.96
      0.4000         4.90
      0.4010         4.81
      0.4020         4.78
      0.4030         4.81
      0.4040         4.81
      0.4050         4.77
      0.4060         4.79
      0.4070         4.75
      0.4080         4.77
      0.4090         4.91
      0.4100         4.96
      0.4110         5.01
      0.4120         4.99
      0.4130         4.89
      0.4140         4.97
      0.4150         4.93
      0.4160         4.96
      0.4170         4.93
      0.4180         4.84
      0.4190         4.81
      0.4200         4.88
      0.4210         4.80
      0.4220         4.82
      0.4230         4.86
      0.4240         4.84
      0.4250         4.90
      0.4260         4.90
      0.4270         4.92
      0.4280         4.94
      0.4290         4.86
      0.4300         4.81
      0.4310         4.76
      0.4320         4.80
      0.4330         4.80
      0.4340         4.75
      0.4350         4.80
      0.4360         4.79
      0.4370         4.86
      0.4380         4.91
      0.4390         4.90
      0.4400         4.84
      0.4410         4.91
      0.4420         4.96
      0.4430         4.95
      0.4440         4.95
      0.4450         4.95
      0.4460         4.92
      0.4470         4.99
      0.4480         5.01
      0.4490         5.00
      0.4500         4.98
      0.4510         5.00
      0.4520         4.93
      0.4530         4.85
      0.4540         4.89
      0.4550         4.85
      0.4560         4.83
      0.4570         4.78
      0.4580         4.68
      0.4590         4.74
      0.4600         4.79
      0.4610         4.74
      0.4620         4.71
      0.4630         4.69
      0.4640         4.75
      0.4650         4.71
      0.4660         4.79
      0.4670         4.79
      0.4680         4.80
      0.4690         4.76
      0.4700         4.83
      0.4710         4.88
      0.4720         5.03
      0.4730         5.09
      0.4740         5.11
      0.4750         5.17
      0.4760         5.28
      0.4770         5.31
      0.4780         5.41
      0.4790         5.47
      0.4800         5.35
      0.4810         5.43
      0.4820         5.41
      0.4830         5.39
      0.4840         5.32
      0.4850         5.38
      0.4860         5.34
      0.4870         5.27
      0.4880         5.22
      0.4890         5.23
      0.4900         5.22
      0.4910         5.14
      0.4920         5.00
      0.4930         5.03
      0.4940         4.91
      0.4950         4.92
      0.4960         4.84
      0.4970         4.86
      0.4980         4.87
      0.4990         4.89
      0.5000         4.94
      0.5010         4.90
      0.5020         4.89
      0.5030         4.94
      0.5040         5.05
      0.5050         5.01
      0.5060         5.08
      0.5070         5.14
      0.5080         5.16
      0.5090         5.20
      0.5100         5.12
      0.5110         5.12
      0.5120         5.14
      0.5130         5.06
      0.5140         5.15
      0.5150         5.02
      0.5160         4.95
      0.5170         4.89
      0.5180         4.86
      0.5190         4.75
      0.5200         4.72
      0.5210         4.72
      0.5220         4.72
      0.5230         4.62
      0.5240         4.58
      0.5250         4.57
      0.5260         4.56
      0.5270         4.54
      0.5280         4.52
      0.5290         4.52
      0.5300         4.56
      0.5310         4.64
      0.5320         4.68
      0.5330         4.81
      0.5340         4.87
      0.5350         4.97
      0.5360         5.07
      0.5370         5.04
      0.5380         5.10
      0.5390         5.09
      0.5400         5.19
      0.5410         5.21
      0.5420         5.18
      0.5430         5.18
      0.5440         5.16
      0.5450         5.16
      0.5460         5.01
      0.5470         4.99
      0.5480         5.00
      0.5490         4.98
      0.5500         4.95
      0.5510         4.88
      0.5520         4.89
      0.5530         4.89
      0.5540         4.87
      0.5550         4.85
      0.5560         4.78
      0.5570         4.96
      0.5580         4.94
      0.5590         5.01
      0.5600         4.97
      0.5610         5.03
      0.5620         5.15
      0.5630         5.16
      0.5640         5.12
      0.5650         5.23
      0.5660         5.35
      0.5670         5.29
      0.5680         5.28
      0.5690         5.31
      0.5700         5.35
      0.5710         5.40
      0.5720         5.37
      0.5730         5.27
      0.5740         5.20
      0.5750         5.25
      0.5760         5.27
      0.5770         5.17
      0.5780         5.09
      0.5790         5.14
      0.5800         5.64
      0.5810         5.07
      0.5820         5.00
      0.5830         5.08
      0.5840         5.01
      0.5850         5.03
      0.5860         5.04
      0.5870         5.09
      0.5880         5.08
      0.5890         5.11
      0.5900         5.17
      0.5910         5.13
      0.5920         5.10
      0.5930         5.17
      0.5940         5.13
      0.5950         5.06
      0.5960         5.10
      0.5970         5.04
      0.5980         5.20
      0.5990         5.11
      0.6000         5.15
      0.6010         5.69
      0.6020         5.66
      0.6030         5.64
      0.6040         5.18
      0.6050         5.65
      0.6060         5.67
      0.6070         5.61
      0.6080         5.70
      0.6090         5.61
      0.6100         5.50
      0.6110         5.50
      0.6120         5.62
      0.6130         5.66
      0.6140         5.25
      0.6150         5.30
      0.6160         5.30
      0.6170         5.41
      0.6180         5.39
      0.6190         5.43
      0.6200         5.42
      0.6210         5.88
      0.6220         6.02
      0.6230         6.00
      0.6240         6.02
      0.6250         6.03
      0.6260         6.06
      0.6270         6.07
      0.6280         5.99
      0.6290         6.06
      0.6300         6.06
      0.6310         6.14
      0.6320         5.94
      0.6330         5.32
      0.6340         5.81
      0.6350         5.80
      0.6360         5.88
      0.6370         5.80
      0.6380         5.73
      0.6390         5.81
      0.6400         5.97
      0.6410         6.54
      0.6420         6.52
      0.6430         6.54
      0.6440         6.54
      0.6450         6.51
      0.6460         6.48
      0.6470         6.58
      0.6480         6.64
      0.6490         6.87
      0.6500         6.99
      0.6510         7.02
      0.6520         7.03
      0.6530         7.15
      0.6540         7.23
      0.6550         7.33
      0.6560         7.26
      0.6570         7.34
      0.6580         7.45
      0.6590         7.30
      0.6600         7.20
      0.6610         7.20
      0.6620         7.31
      0.6630         7.35
      0.6640         7.43
      0.6650         7.63
      0.6660         7.75
      0.6670         7.82
      0.6680         7.83
      0.6690         7.80
      0.6700         7.85
      0.6710         7.85
      0.6720         8.12
      0.6730         8.27
      0.6740         8.30
      0.6750         8.40
      0.6760         8.57
      0.6770         8.71
      0.6780         8.78
      0.6790         8.97
      0.6800         8.95
      0.6810         8.98
      0.6820         8.96
      0.6830         8.98
      0.6840         9.06
      0.6850         9.00
      0.6860         9.06
      0.6870         8.99
      0.6880         9.05
      0.6890         9.06
      0.6900         9.09
      0.6910         9.20
      0.6920         9.12
      0.6930         9.01
      0.6940         9.08
      0.6950         9.12
      0.6960         9.21
      0.6970         9.19
      0.6980         9.13
      0.6990         9.29
      0.7000         9.40
      0.7010         9.55
      0.7020         9.75
      0.7030         9.90
      0.7040        10.02
      0.7050        10.18
      0.7060        10.27
      0.7070        10.42
      0.7080        10.43
      0.7090        10.58
      0.7100        10.70
      0.7110        10.86
      0.7120        10.93
      0.7130        11.18
      0.7140        11.26
      0.7150        11.38
      0.7160        11.46
      0.7170        11.65
      0.7180        11.87
      0.7190        11.91
      0.7200        12.02
      0.7210        12.18
      0.7220        12.08
      0.7230        12.15
      0.7240        12.19
      0.7250        12.34
      0.7260        12.49
      0.7270        12.53
      0.7280        12.85
      0.7290        12.97
      0.7300        13.01
      0.7310        13.15
      0.7320        13.34
      0.7330        13.39
      0.7340        13.64
      0.7350        13.71
      0.7360        13.87
      0.7370        14.00
      0.7380        14.07
      0.7390        14.14
      0.7400        14.34
      0.7410        14.47
      0.7420        14.73
      0.7430        14.83
      0.7440        14.97
      0.7450        15.00
      0.7460        15.01
      0.7470        15.13
      0.7480        15.04
      0.7490        15.16
      0.7500        15.36
      0.7510        15.31
      0.7520        15.35
      0.7530        15.50
      0.7540        15.53
      0.7550        15.61
      0.7560        15.67
      0.7570        15.67
      0.7580        15.79
      0.7590        15.97
      0.7600        16.02
      0.7610        16.18
      0.7620        16.30
      0.7630        16.46
      0.7640        16.60
      0.7650        16.73
      0.7660        16.80
      0.7670        17.00
